PE IR       SUBTECH     SPECTRUM    ASCII       PEDS        4.00        
   -1
LC1_unf.asc
14/08/27
11:03:44.00
14/08/27
15:25:05.00
nystrom.12
Co-added spectrum 27 at 2251, -2573 (Image Marker 1)
700.000000
#HDR
-1
-1
#GR
cm-1
A
1.0
0.0
4000.000000
-2.000000
1651
8
0.071693
-0.035563
#DATA
4000.000000	0.043627
3998.000000	0.043623
3996.000000	0.043582
3994.000000	0.043510
3992.000000	0.043433
3990.000000	0.043384
3988.000000	0.043357
3986.000000	0.043297
3984.000000	0.043151
3982.000000	0.042938
3980.000000	0.042716
3978.000000	0.042536
3976.000000	0.042425
3974.000000	0.042357
3972.000000	0.042297
3970.000000	0.042278
3968.000000	0.042337
3966.000000	0.042466
3964.000000	0.042635
3962.000000	0.042815
3960.000000	0.042949
3958.000000	0.042993
3956.000000	0.042951
3954.000000	0.042833
3952.000000	0.042671
3950.000000	0.042503
3948.000000	0.042325
3946.000000	0.042135
3944.000000	0.041993
3942.000000	0.041951
3940.000000	0.042022
3938.000000	0.042192
3936.000000	0.042423
3934.000000	0.042684
3932.000000	0.042983
3930.000000	0.043349
3928.000000	0.043724
3926.000000	0.044011
3924.000000	0.044194
3922.000000	0.044327
3920.000000	0.044472
3918.000000	0.044651
3916.000000	0.044820
3914.000000	0.044937
3912.000000	0.045011
3910.000000	0.045068
3908.000000	0.045122
3906.000000	0.045171
3904.000000	0.045191
3902.000000	0.045122
3900.000000	0.045014
3898.000000	0.044931
3896.000000	0.044863
3894.000000	0.044825
3892.000000	0.044845
3890.000000	0.044934
3888.000000	0.045022
3886.000000	0.045064
3884.000000	0.045075
3882.000000	0.045082
3880.000000	0.045082
3878.000000	0.045012
3876.000000	0.044849
3874.000000	0.044641
3872.000000	0.044457
3870.000000	0.044393
3868.000000	0.044557
3866.000000	0.044890
3864.000000	0.045274
3862.000000	0.045687
3860.000000	0.046170
3858.000000	0.046718
3856.000000	0.047260
3854.000000	0.047716
3852.000000	0.048001
3850.000000	0.047954
3848.000000	0.047683
3846.000000	0.047355
3844.000000	0.047055
3842.000000	0.046800
3840.000000	0.046606
3838.000000	0.046511
3836.000000	0.046503
3834.000000	0.046618
3832.000000	0.046878
3830.000000	0.047208
3828.000000	0.047494
3826.000000	0.047628
3824.000000	0.047539
3822.000000	0.047254
3820.000000	0.046881
3818.000000	0.046453
3816.000000	0.045995
3814.000000	0.045529
3812.000000	0.045031
3810.000000	0.044563
3808.000000	0.044214
3806.000000	0.044019
3804.000000	0.043913
3802.000000	0.043828
3800.000000	0.043743
3798.000000	0.043622
3796.000000	0.043502
3794.000000	0.043422
3792.000000	0.043374
3790.000000	0.043320
3788.000000	0.043229
3786.000000	0.043124
3784.000000	0.043062
3782.000000	0.043108
3780.000000	0.043275
3778.000000	0.043481
3776.000000	0.043581
3774.000000	0.043545
3772.000000	0.043450
3770.000000	0.043345
3768.000000	0.043204
3766.000000	0.042966
3764.000000	0.042586
3762.000000	0.042101
3760.000000	0.041690
3758.000000	0.041488
3756.000000	0.041463
3754.000000	0.041580
3752.000000	0.041803
3750.000000	0.042048
3748.000000	0.042262
3746.000000	0.042502
3744.000000	0.042751
3742.000000	0.042879
3740.000000	0.042837
3738.000000	0.042658
3736.000000	0.042404
3734.000000	0.042182
3732.000000	0.042026
3730.000000	0.041912
3728.000000	0.041798
3726.000000	0.041647
3724.000000	0.041462
3722.000000	0.041244
3720.000000	0.040937
3718.000000	0.040479
3716.000000	0.039938
3714.000000	0.039432
3712.000000	0.039007
3710.000000	0.038701
3708.000000	0.038544
3706.000000	0.038503
3704.000000	0.038573
3702.000000	0.038801
3700.000000	0.039161
3698.000000	0.039510
3696.000000	0.039789
3694.000000	0.039997
3692.000000	0.040116
3690.000000	0.040187
3688.000000	0.040292
3686.000000	0.040386
3684.000000	0.040429
3682.000000	0.040453
3680.000000	0.040457
3678.000000	0.040431
3676.000000	0.040414
3674.000000	0.040418
3672.000000	0.040359
3670.000000	0.040272
3668.000000	0.040201
3666.000000	0.040059
3664.000000	0.039847
3662.000000	0.039652
3660.000000	0.039514
3658.000000	0.039385
3656.000000	0.039242
3654.000000	0.039076
3652.000000	0.038847
3650.000000	0.038590
3648.000000	0.038429
3646.000000	0.038342
3644.000000	0.038204
3642.000000	0.038007
3640.000000	0.037774
3638.000000	0.037510
3636.000000	0.037227
3634.000000	0.036965
3632.000000	0.036714
3630.000000	0.036417
3628.000000	0.036053
3626.000000	0.035645
3624.000000	0.035224
3622.000000	0.034816
3620.000000	0.034472
3618.000000	0.034218
3616.000000	0.034009
3614.000000	0.033817
3612.000000	0.033684
3610.000000	0.033647
3608.000000	0.033707
3606.000000	0.033862
3604.000000	0.034074
3602.000000	0.034289
3600.000000	0.034495
3598.000000	0.034705
3596.000000	0.034931
3594.000000	0.035168
3592.000000	0.035377
3590.000000	0.035523
3588.000000	0.035619
3586.000000	0.035666
3584.000000	0.035656
3582.000000	0.035648
3580.000000	0.035656
3578.000000	0.035637
3576.000000	0.035589
3574.000000	0.035550
3572.000000	0.035534
3570.000000	0.035533
3568.000000	0.035527
3566.000000	0.035475
3564.000000	0.035373
3562.000000	0.035270
3560.000000	0.035206
3558.000000	0.035172
3556.000000	0.035115
3554.000000	0.035005
3552.000000	0.034905
3550.000000	0.034887
3548.000000	0.034899
3546.000000	0.034839
3544.000000	0.034658
3542.000000	0.034407
3540.000000	0.034174
3538.000000	0.034005
3536.000000	0.033867
3534.000000	0.033690
3532.000000	0.033495
3530.000000	0.033371
3528.000000	0.033360
3526.000000	0.033398
3524.000000	0.033399
3522.000000	0.033318
3520.000000	0.033136
3518.000000	0.032869
3516.000000	0.032541
3514.000000	0.032156
3512.000000	0.031710
3510.000000	0.031244
3508.000000	0.030844
3506.000000	0.030555
3504.000000	0.030393
3502.000000	0.030366
3500.000000	0.030428
3498.000000	0.030510
3496.000000	0.030593
3494.000000	0.030696
3492.000000	0.030771
3490.000000	0.030771
3488.000000	0.030725
3486.000000	0.030643
3484.000000	0.030505
3482.000000	0.030364
3480.000000	0.030269
3478.000000	0.030203
3476.000000	0.030197
3474.000000	0.030294
3472.000000	0.030444
3470.000000	0.030581
3468.000000	0.030729
3466.000000	0.030919
3464.000000	0.031111
3462.000000	0.031274
3460.000000	0.031378
3458.000000	0.031395
3456.000000	0.031336
3454.000000	0.031235
3452.000000	0.031125
3450.000000	0.031010
3448.000000	0.030880
3446.000000	0.030762
3444.000000	0.030699
3442.000000	0.030679
3440.000000	0.030657
3438.000000	0.030622
3436.000000	0.030590
3434.000000	0.030564
3432.000000	0.030527
3430.000000	0.030477
3428.000000	0.030393
3426.000000	0.030266
3424.000000	0.030141
3422.000000	0.030069
3420.000000	0.030044
3418.000000	0.030021
3416.000000	0.029979
3414.000000	0.029934
3412.000000	0.029877
3410.000000	0.029788
3408.000000	0.029673
3406.000000	0.029535
3404.000000	0.029375
3402.000000	0.029223
3400.000000	0.029115
3398.000000	0.029047
3396.000000	0.029012
3394.000000	0.029023
3392.000000	0.029060
3390.000000	0.029096
3388.000000	0.029134
3386.000000	0.029165
3384.000000	0.029180
3382.000000	0.029171
3380.000000	0.029118
3378.000000	0.029034
3376.000000	0.028978
3374.000000	0.028972
3372.000000	0.028982
3370.000000	0.028996
3368.000000	0.029006
3366.000000	0.028984
3364.000000	0.028932
3362.000000	0.028867
3360.000000	0.028756
3358.000000	0.028578
3356.000000	0.028358
3354.000000	0.028121
3352.000000	0.027881
3350.000000	0.027656
3348.000000	0.027470
3346.000000	0.027328
3344.000000	0.027253
3342.000000	0.027248
3340.000000	0.027280
3338.000000	0.027341
3336.000000	0.027428
3334.000000	0.027504
3332.000000	0.027542
3330.000000	0.027582
3328.000000	0.027652
3326.000000	0.027734
3324.000000	0.027827
3322.000000	0.027903
3320.000000	0.027919
3318.000000	0.027907
3316.000000	0.027941
3314.000000	0.028018
3312.000000	0.028070
3310.000000	0.028055
3308.000000	0.027978
3306.000000	0.027895
3304.000000	0.027847
3302.000000	0.027811
3300.000000	0.027722
3298.000000	0.027546
3296.000000	0.027314
3294.000000	0.027085
3292.000000	0.026888
3290.000000	0.026703
3288.000000	0.026518
3286.000000	0.026373
3284.000000	0.026314
3282.000000	0.026337
3280.000000	0.026417
3278.000000	0.026528
3276.000000	0.026644
3274.000000	0.026752
3272.000000	0.026853
3270.000000	0.026932
3268.000000	0.026956
3266.000000	0.026933
3264.000000	0.026880
3262.000000	0.026785
3260.000000	0.026646
3258.000000	0.026474
3256.000000	0.026295
3254.000000	0.026139
3252.000000	0.026019
3250.000000	0.025914
3248.000000	0.025792
3246.000000	0.025663
3244.000000	0.025570
3242.000000	0.025558
3240.000000	0.025592
3238.000000	0.025582
3236.000000	0.025481
3234.000000	0.025315
3232.000000	0.025149
3230.000000	0.025023
3228.000000	0.024921
3226.000000	0.024797
3224.000000	0.024656
3222.000000	0.024568
3220.000000	0.024592
3218.000000	0.024711
3216.000000	0.024857
3214.000000	0.024976
3212.000000	0.025047
3210.000000	0.025064
3208.000000	0.025038
3206.000000	0.024966
3204.000000	0.024806
3202.000000	0.024567
3200.000000	0.024320
3198.000000	0.024106
3196.000000	0.023930
3194.000000	0.023790
3192.000000	0.023674
3190.000000	0.023557
3188.000000	0.023426
3186.000000	0.023260
3184.000000	0.023029
3182.000000	0.022755
3180.000000	0.022497
3178.000000	0.022288
3176.000000	0.022131
3174.000000	0.022013
3172.000000	0.021930
3170.000000	0.021921
3168.000000	0.022018
3166.000000	0.022164
3164.000000	0.022252
3162.000000	0.022245
3160.000000	0.022177
3158.000000	0.022080
3156.000000	0.021957
3154.000000	0.021793
3152.000000	0.021567
3150.000000	0.021297
3148.000000	0.021069
3146.000000	0.020968
3144.000000	0.020969
3142.000000	0.021008
3140.000000	0.021058
3138.000000	0.021122
3136.000000	0.021220
3134.000000	0.021369
3132.000000	0.021527
3130.000000	0.021599
3128.000000	0.021549
3126.000000	0.021417
3124.000000	0.021252
3122.000000	0.021088
3120.000000	0.020926
3118.000000	0.020739
3116.000000	0.020533
3114.000000	0.020339
3112.000000	0.020177
3110.000000	0.020051
3108.000000	0.019949
3106.000000	0.019869
3104.000000	0.019819
3102.000000	0.019781
3100.000000	0.019742
3098.000000	0.019705
3096.000000	0.019690
3094.000000	0.019694
3092.000000	0.019692
3090.000000	0.019673
3088.000000	0.019651
3086.000000	0.019633
3084.000000	0.019636
3082.000000	0.019664
3080.000000	0.019702
3078.000000	0.019755
3076.000000	0.019832
3074.000000	0.019918
3072.000000	0.019988
3070.000000	0.020037
3068.000000	0.020072
3066.000000	0.020086
3064.000000	0.020078
3062.000000	0.020061
3060.000000	0.020046
3058.000000	0.020051
3056.000000	0.020096
3054.000000	0.020186
3052.000000	0.020294
3050.000000	0.020401
3048.000000	0.020516
3046.000000	0.020625
3044.000000	0.020710
3042.000000	0.020768
3040.000000	0.020807
3038.000000	0.020826
3036.000000	0.020822
3034.000000	0.020804
3032.000000	0.020777
3030.000000	0.020756
3028.000000	0.020770
3026.000000	0.020816
3024.000000	0.020855
3022.000000	0.020873
3020.000000	0.020891
3018.000000	0.020931
3016.000000	0.021020
3014.000000	0.021158
3012.000000	0.021301
3010.000000	0.021417
3008.000000	0.021523
3006.000000	0.021634
3004.000000	0.021713
3002.000000	0.021725
3000.000000	0.021676
2998.000000	0.021571
2996.000000	0.021411
2994.000000	0.021212
2992.000000	0.020979
2990.000000	0.020724
2988.000000	0.020480
2986.000000	0.020283
2984.000000	0.020155
2982.000000	0.020085
2980.000000	0.020034
2978.000000	0.019967
2976.000000	0.019914
2974.000000	0.019909
2972.000000	0.019929
2970.000000	0.019962
2968.000000	0.019976
2966.000000	0.019916
2964.000000	0.019798
2962.000000	0.019731
2960.000000	0.019781
2958.000000	0.019883
2956.000000	0.019981
2954.000000	0.020043
2952.000000	0.020064
2950.000000	0.020097
2948.000000	0.020180
2946.000000	0.020272
2944.000000	0.020314
2942.000000	0.020306
2940.000000	0.020282
2938.000000	0.020271
2936.000000	0.020276
2934.000000	0.020281
2932.000000	0.020282
2930.000000	0.020272
2928.000000	0.020242
2926.000000	0.020187
2924.000000	0.020106
2922.000000	0.020012
2920.000000	0.019931
2918.000000	0.019891
2916.000000	0.019897
2914.000000	0.019928
2912.000000	0.019978
2910.000000	0.020059
2908.000000	0.020159
2906.000000	0.020253
2904.000000	0.020341
2902.000000	0.020412
2900.000000	0.020435
2898.000000	0.020402
2896.000000	0.020321
2894.000000	0.020222
2892.000000	0.020140
2890.000000	0.020075
2888.000000	0.020009
2886.000000	0.019921
2884.000000	0.019818
2882.000000	0.019748
2880.000000	0.019735
2878.000000	0.019752
2876.000000	0.019764
2874.000000	0.019763
2872.000000	0.019756
2870.000000	0.019759
2868.000000	0.019801
2866.000000	0.019900
2864.000000	0.020024
2862.000000	0.020153
2860.000000	0.020311
2858.000000	0.020525
2856.000000	0.020792
2854.000000	0.021076
2852.000000	0.021328
2850.000000	0.021514
2848.000000	0.021641
2846.000000	0.021730
2844.000000	0.021773
2842.000000	0.021735
2840.000000	0.021605
2838.000000	0.021427
2836.000000	0.021256
2834.000000	0.021124
2832.000000	0.021023
2830.000000	0.020918
2828.000000	0.020800
2826.000000	0.020706
2824.000000	0.020666
2822.000000	0.020648
2820.000000	0.020611
2818.000000	0.020546
2816.000000	0.020456
2814.000000	0.020350
2812.000000	0.020258
2810.000000	0.020199
2808.000000	0.020140
2806.000000	0.020067
2804.000000	0.020002
2802.000000	0.019948
2800.000000	0.019917
2798.000000	0.019931
2796.000000	0.019950
2794.000000	0.019923
2792.000000	0.019874
2790.000000	0.019844
2788.000000	0.019841
2786.000000	0.019857
2784.000000	0.019870
2782.000000	0.019870
2780.000000	0.019885
2778.000000	0.019937
2776.000000	0.020006
2774.000000	0.020059
2772.000000	0.020088
2770.000000	0.020111
2768.000000	0.020151
2766.000000	0.020217
2764.000000	0.020296
2762.000000	0.020379
2760.000000	0.020465
2758.000000	0.020555
2756.000000	0.020648
2754.000000	0.020749
2752.000000	0.020860
2750.000000	0.020970
2748.000000	0.021068
2746.000000	0.021156
2744.000000	0.021252
2742.000000	0.021390
2740.000000	0.021576
2738.000000	0.021770
2736.000000	0.021928
2734.000000	0.022030
2732.000000	0.022076
2730.000000	0.022099
2728.000000	0.022111
2726.000000	0.022109
2724.000000	0.022089
2722.000000	0.022072
2720.000000	0.022096
2718.000000	0.022170
2716.000000	0.022286
2714.000000	0.022424
2712.000000	0.022559
2710.000000	0.022690
2708.000000	0.022787
2706.000000	0.022819
2704.000000	0.022811
2702.000000	0.022801
2700.000000	0.022803
2698.000000	0.022816
2696.000000	0.022817
2694.000000	0.022805
2692.000000	0.022831
2690.000000	0.022929
2688.000000	0.023070
2686.000000	0.023210
2684.000000	0.023356
2682.000000	0.023530
2680.000000	0.023741
2678.000000	0.023985
2676.000000	0.024229
2674.000000	0.024447
2672.000000	0.024646
2670.000000	0.024824
2668.000000	0.024961
2666.000000	0.025054
2664.000000	0.025126
2662.000000	0.025197
2660.000000	0.025272
2658.000000	0.025343
2656.000000	0.025397
2654.000000	0.025446
2652.000000	0.025509
2650.000000	0.025585
2648.000000	0.025652
2646.000000	0.025694
2644.000000	0.025718
2642.000000	0.025746
2640.000000	0.025811
2638.000000	0.025910
2636.000000	0.026008
2634.000000	0.026087
2632.000000	0.026152
2630.000000	0.026221
2628.000000	0.026292
2626.000000	0.026342
2624.000000	0.026352
2622.000000	0.026316
2620.000000	0.026263
2618.000000	0.026225
2616.000000	0.026214
2614.000000	0.026223
2612.000000	0.026240
2610.000000	0.026268
2608.000000	0.026310
2606.000000	0.026366
2604.000000	0.026422
2602.000000	0.026456
2600.000000	0.026478
2598.000000	0.026489
2596.000000	0.026496
2594.000000	0.026516
2592.000000	0.026542
2590.000000	0.026570
2588.000000	0.026634
2586.000000	0.026753
2584.000000	0.026913
2582.000000	0.027119
2580.000000	0.027379
2578.000000	0.027662
2576.000000	0.027955
2574.000000	0.028279
2572.000000	0.028621
2570.000000	0.028944
2568.000000	0.029237
2566.000000	0.029488
2564.000000	0.029663
2562.000000	0.029765
2560.000000	0.029821
2558.000000	0.029809
2556.000000	0.029700
2554.000000	0.029511
2552.000000	0.029261
2550.000000	0.028974
2548.000000	0.028698
2546.000000	0.028448
2544.000000	0.028194
2542.000000	0.027946
2540.000000	0.027753
2538.000000	0.027627
2536.000000	0.027546
2534.000000	0.027505
2532.000000	0.027492
2530.000000	0.027499
2528.000000	0.027543
2526.000000	0.027631
2524.000000	0.027758
2522.000000	0.027926
2520.000000	0.028133
2518.000000	0.028355
2516.000000	0.028558
2514.000000	0.028717
2512.000000	0.028833
2510.000000	0.028928
2508.000000	0.028999
2506.000000	0.029021
2504.000000	0.028980
2502.000000	0.028894
2500.000000	0.028799
2498.000000	0.028723
2496.000000	0.028667
2494.000000	0.028598
2492.000000	0.028478
2490.000000	0.028302
2488.000000	0.028091
2486.000000	0.027864
2484.000000	0.027617
2482.000000	0.027340
2480.000000	0.027047
2478.000000	0.026751
2476.000000	0.026479
2474.000000	0.026264
2472.000000	0.026110
2470.000000	0.025984
2468.000000	0.025869
2466.000000	0.025785
2464.000000	0.025725
2462.000000	0.025669
2460.000000	0.025627
2458.000000	0.025611
2456.000000	0.025609
2454.000000	0.025611
2452.000000	0.025613
2450.000000	0.025608
2448.000000	0.025618
2446.000000	0.025674
2444.000000	0.025744
2442.000000	0.025787
2440.000000	0.025808
2438.000000	0.025837
2436.000000	0.025891
2434.000000	0.025954
2432.000000	0.025988
2430.000000	0.025952
2428.000000	0.025844
2426.000000	0.025706
2424.000000	0.025552
2422.000000	0.025358
2420.000000	0.025126
2418.000000	0.024886
2416.000000	0.024674
2414.000000	0.024531
2412.000000	0.024458
2410.000000	0.024395
2408.000000	0.024295
2406.000000	0.024188
2404.000000	0.024087
2402.000000	0.023955
2400.000000	0.023765
2398.000000	0.023512
2396.000000	0.023229
2394.000000	0.022995
2392.000000	0.022857
2390.000000	0.022765
2388.000000	0.022679
2386.000000	0.022655
2384.000000	0.022771
2382.000000	0.022968
2380.000000	0.023074
2378.000000	0.023018
2376.000000	0.022932
2374.000000	0.023008
2372.000000	0.023289
2370.000000	0.023593
2368.000000	0.023614
2366.000000	0.023393
2364.000000	0.023317
2362.000000	0.023569
2360.000000	0.023881
2358.000000	0.023865
2356.000000	0.023508
2354.000000	0.023001
2352.000000	0.022603
2350.000000	0.022415
2348.000000	0.022262
2346.000000	0.021932
2344.000000	0.021417
2342.000000	0.020821
2340.000000	0.020199
2338.000000	0.019600
2336.000000	0.019067
2334.000000	0.018529
2332.000000	0.017886
2330.000000	0.017207
2328.000000	0.016618
2326.000000	0.016199
2324.000000	0.015956
2322.000000	0.015840
2320.000000	0.015761
2318.000000	0.015671
2316.000000	0.015612
2314.000000	0.015611
2312.000000	0.015637
2310.000000	0.015640
2308.000000	0.015611
2306.000000	0.015554
2304.000000	0.015441
2302.000000	0.015269
2300.000000	0.015081
2298.000000	0.014908
2296.000000	0.014755
2294.000000	0.014622
2292.000000	0.014504
2290.000000	0.014401
2288.000000	0.014329
2286.000000	0.014304
2284.000000	0.014303
2282.000000	0.014281
2280.000000	0.014219
2278.000000	0.014115
2276.000000	0.013964
2274.000000	0.013765
2272.000000	0.013516
2270.000000	0.013227
2268.000000	0.012924
2266.000000	0.012637
2264.000000	0.012387
2262.000000	0.012164
2260.000000	0.011960
2258.000000	0.011788
2256.000000	0.011663
2254.000000	0.011584
2252.000000	0.011534
2250.000000	0.011481
2248.000000	0.011387
2246.000000	0.011240
2244.000000	0.011080
2242.000000	0.010937
2240.000000	0.010789
2238.000000	0.010603
2236.000000	0.010370
2234.000000	0.010105
2232.000000	0.009832
2230.000000	0.009551
2228.000000	0.009239
2226.000000	0.008892
2224.000000	0.008525
2222.000000	0.008161
2220.000000	0.007828
2218.000000	0.007523
2216.000000	0.007246
2214.000000	0.007035
2212.000000	0.006924
2210.000000	0.006891
2208.000000	0.006901
2206.000000	0.006930
2204.000000	0.006956
2202.000000	0.006987
2200.000000	0.007036
2198.000000	0.007068
2196.000000	0.007036
2194.000000	0.006951
2192.000000	0.006862
2190.000000	0.006815
2188.000000	0.006825
2186.000000	0.006848
2184.000000	0.006833
2182.000000	0.006790
2180.000000	0.006754
2178.000000	0.006712
2176.000000	0.006621
2174.000000	0.006452
2172.000000	0.006212
2170.000000	0.005937
2168.000000	0.005670
2166.000000	0.005445
2164.000000	0.005248
2162.000000	0.005065
2160.000000	0.004913
2158.000000	0.004795
2156.000000	0.004702
2154.000000	0.004622
2152.000000	0.004545
2150.000000	0.004457
2148.000000	0.004343
2146.000000	0.004211
2144.000000	0.004072
2142.000000	0.003938
2140.000000	0.003805
2138.000000	0.003678
2136.000000	0.003564
2134.000000	0.003469
2132.000000	0.003396
2130.000000	0.003328
2128.000000	0.003260
2126.000000	0.003203
2124.000000	0.003165
2122.000000	0.003140
2120.000000	0.003104
2118.000000	0.003033
2116.000000	0.002942
2114.000000	0.002867
2112.000000	0.002807
2110.000000	0.002749
2108.000000	0.002688
2106.000000	0.002625
2104.000000	0.002575
2102.000000	0.002560
2100.000000	0.002581
2098.000000	0.002627
2096.000000	0.002705
2094.000000	0.002806
2092.000000	0.002910
2090.000000	0.003009
2088.000000	0.003099
2086.000000	0.003167
2084.000000	0.003219
2082.000000	0.003250
2080.000000	0.003237
2078.000000	0.003184
2076.000000	0.003122
2074.000000	0.003065
2072.000000	0.003015
2070.000000	0.002979
2068.000000	0.002955
2066.000000	0.002935
2064.000000	0.002927
2062.000000	0.002932
2060.000000	0.002942
2058.000000	0.002954
2056.000000	0.002983
2054.000000	0.003029
2052.000000	0.003075
2050.000000	0.003123
2048.000000	0.003179
2046.000000	0.003238
2044.000000	0.003297
2042.000000	0.003353
2040.000000	0.003384
2038.000000	0.003395
2036.000000	0.003416
2034.000000	0.003455
2032.000000	0.003498
2030.000000	0.003552
2028.000000	0.003634
2026.000000	0.003742
2024.000000	0.003887
2022.000000	0.004062
2020.000000	0.004228
2018.000000	0.004368
2016.000000	0.004499
2014.000000	0.004614
2012.000000	0.004680
2010.000000	0.004689
2008.000000	0.004672
2006.000000	0.004639
2004.000000	0.004591
2002.000000	0.004553
2000.000000	0.004537
1998.000000	0.004544
1996.000000	0.004588
1994.000000	0.004684
1992.000000	0.004813
1990.000000	0.004958
1988.000000	0.005129
1986.000000	0.005324
1984.000000	0.005531
1982.000000	0.005750
1980.000000	0.005978
1978.000000	0.006198
1976.000000	0.006405
1974.000000	0.006600
1972.000000	0.006793
1970.000000	0.007003
1968.000000	0.007239
1966.000000	0.007468
1964.000000	0.007661
1962.000000	0.007837
1960.000000	0.008034
1958.000000	0.008264
1956.000000	0.008497
1954.000000	0.008693
1952.000000	0.008826
1950.000000	0.008901
1948.000000	0.008960
1946.000000	0.009039
1944.000000	0.009131
1942.000000	0.009207
1940.000000	0.009261
1938.000000	0.009315
1936.000000	0.009404
1934.000000	0.009540
1932.000000	0.009719
1930.000000	0.009917
1928.000000	0.010091
1926.000000	0.010226
1924.000000	0.010355
1922.000000	0.010507
1920.000000	0.010660
1918.000000	0.010797
1916.000000	0.010915
1914.000000	0.011011
1912.000000	0.011084
1910.000000	0.011150
1908.000000	0.011217
1906.000000	0.011267
1904.000000	0.011305
1902.000000	0.011347
1900.000000	0.011392
1898.000000	0.011433
1896.000000	0.011481
1894.000000	0.011556
1892.000000	0.011652
1890.000000	0.011764
1888.000000	0.011895
1886.000000	0.012023
1884.000000	0.012128
1882.000000	0.012223
1880.000000	0.012330
1878.000000	0.012455
1876.000000	0.012578
1874.000000	0.012676
1872.000000	0.012735
1870.000000	0.012779
1868.000000	0.012848
1866.000000	0.012953
1864.000000	0.013071
1862.000000	0.013188
1860.000000	0.013309
1858.000000	0.013449
1856.000000	0.013617
1854.000000	0.013800
1852.000000	0.013967
1850.000000	0.014108
1848.000000	0.014243
1846.000000	0.014382
1844.000000	0.014492
1842.000000	0.014553
1840.000000	0.014590
1838.000000	0.014614
1836.000000	0.014618
1834.000000	0.014589
1832.000000	0.014527
1830.000000	0.014435
1828.000000	0.014336
1826.000000	0.014268
1824.000000	0.014239
1822.000000	0.014243
1820.000000	0.014311
1818.000000	0.014462
1816.000000	0.014675
1814.000000	0.014928
1812.000000	0.015209
1810.000000	0.015486
1808.000000	0.015726
1806.000000	0.015906
1804.000000	0.015981
1802.000000	0.015921
1800.000000	0.015754
1798.000000	0.015524
1796.000000	0.015239
1794.000000	0.014904
1792.000000	0.014541
1790.000000	0.014193
1788.000000	0.013887
1786.000000	0.013629
1784.000000	0.013421
1782.000000	0.013249
1780.000000	0.013079
1778.000000	0.012896
1776.000000	0.012706
1774.000000	0.012500
1772.000000	0.012267
1770.000000	0.012035
1768.000000	0.011831
1766.000000	0.011631
1764.000000	0.011429
1762.000000	0.011241
1760.000000	0.011077
1758.000000	0.010941
1756.000000	0.010841
1754.000000	0.010761
1752.000000	0.010658
1750.000000	0.010532
1748.000000	0.010411
1746.000000	0.010289
1744.000000	0.010145
1742.000000	0.009972
1740.000000	0.009753
1738.000000	0.009497
1736.000000	0.009260
1734.000000	0.009078
1732.000000	0.008946
1730.000000	0.008873
1728.000000	0.008864
1726.000000	0.008921
1724.000000	0.009047
1722.000000	0.009235
1720.000000	0.009442
1718.000000	0.009603
1716.000000	0.009660
1714.000000	0.009627
1712.000000	0.009557
1710.000000	0.009456
1708.000000	0.009315
1706.000000	0.009134
1704.000000	0.008934
1702.000000	0.008769
1700.000000	0.008704
1698.000000	0.008739
1696.000000	0.008807
1694.000000	0.008892
1692.000000	0.008992
1690.000000	0.009122
1688.000000	0.009314
1686.000000	0.009565
1684.000000	0.009823
1682.000000	0.010039
1680.000000	0.010234
1678.000000	0.010440
1676.000000	0.010680
1674.000000	0.010956
1672.000000	0.011231
1670.000000	0.011484
1668.000000	0.011714
1666.000000	0.011934
1664.000000	0.012165
1662.000000	0.012410
1660.000000	0.012646
1658.000000	0.012857
1656.000000	0.013044
1654.000000	0.013203
1652.000000	0.013341
1650.000000	0.013500
1648.000000	0.013731
1646.000000	0.014055
1644.000000	0.014468
1642.000000	0.014951
1640.000000	0.015487
1638.000000	0.016088
1636.000000	0.016819
1634.000000	0.017683
1632.000000	0.018582
1630.000000	0.019488
1628.000000	0.020396
1626.000000	0.021313
1624.000000	0.022280
1622.000000	0.023341
1620.000000	0.024450
1618.000000	0.025556
1616.000000	0.026678
1614.000000	0.027839
1612.000000	0.029051
1610.000000	0.030336
1608.000000	0.031702
1606.000000	0.033130
1604.000000	0.034610
1602.000000	0.036149
1600.000000	0.037752
1598.000000	0.039414
1596.000000	0.041113
1594.000000	0.042807
1592.000000	0.044437
1590.000000	0.045963
1588.000000	0.047376
1586.000000	0.048678
1584.000000	0.049860
1582.000000	0.050913
1580.000000	0.051830
1578.000000	0.052597
1576.000000	0.053218
1574.000000	0.053753
1572.000000	0.054301
1570.000000	0.054882
1568.000000	0.055478
1566.000000	0.056062
1564.000000	0.056644
1562.000000	0.057275
1560.000000	0.058007
1558.000000	0.058802
1556.000000	0.059390
1554.000000	0.059713
1552.000000	0.059894
1550.000000	0.060012
1548.000000	0.060112
1546.000000	0.060204
1544.000000	0.060268
1542.000000	0.060329
1540.000000	0.060611
1538.000000	0.061302
1536.000000	0.062209
1534.000000	0.063176
1532.000000	0.064112
1530.000000	0.064993
1528.000000	0.065825
1526.000000	0.066594
1524.000000	0.067238
1522.000000	0.067665
1520.000000	0.067862
1518.000000	0.067949
1516.000000	0.068006
1514.000000	0.068029
1512.000000	0.068004
1510.000000	0.067940
1508.000000	0.067860
1506.000000	0.067760
1504.000000	0.067648
1502.000000	0.067572
1500.000000	0.067557
1498.000000	0.067628
1496.000000	0.067805
1494.000000	0.068073
1492.000000	0.068396
1490.000000	0.068763
1488.000000	0.069193
1486.000000	0.069663
1484.000000	0.070127
1482.000000	0.070549
1480.000000	0.070897
1478.000000	0.071175
1476.000000	0.071415
1474.000000	0.071611
1472.000000	0.071693
1470.000000	0.071605
1468.000000	0.071351
1466.000000	0.070936
1464.000000	0.070364
1462.000000	0.069637
1460.000000	0.068740
1458.000000	0.067683
1456.000000	0.066583
1454.000000	0.065562
1452.000000	0.064602
1450.000000	0.063696
1448.000000	0.062860
1446.000000	0.062123
1444.000000	0.061532
1442.000000	0.061111
1440.000000	0.060836
1438.000000	0.060666
1436.000000	0.060606
1434.000000	0.060683
1432.000000	0.060901
1430.000000	0.061252
1428.000000	0.061690
1426.000000	0.062148
1424.000000	0.062573
1422.000000	0.062938
1420.000000	0.063217
1418.000000	0.063369
1416.000000	0.063344
1414.000000	0.063106
1412.000000	0.062646
1410.000000	0.062002
1408.000000	0.061227
1406.000000	0.060337
1404.000000	0.059325
1402.000000	0.058231
1400.000000	0.057119
1398.000000	0.056031
1396.000000	0.054983
1394.000000	0.053921
1392.000000	0.052801
1390.000000	0.051671
1388.000000	0.050603
1386.000000	0.049644
1384.000000	0.048826
1382.000000	0.048201
1380.000000	0.047853
1378.000000	0.047904
1376.000000	0.048444
1374.000000	0.049468
1372.000000	0.050902
1370.000000	0.052653
1368.000000	0.054612
1366.000000	0.056645
1364.000000	0.058638
1362.000000	0.060488
1360.000000	0.062103
1358.000000	0.063436
1356.000000	0.064473
1354.000000	0.065215
1352.000000	0.065684
1350.000000	0.065926
1348.000000	0.065982
1346.000000	0.065875
1344.000000	0.065638
1342.000000	0.065293
1340.000000	0.064837
1338.000000	0.064280
1336.000000	0.063654
1334.000000	0.062978
1332.000000	0.062259
1330.000000	0.061506
1328.000000	0.060724
1326.000000	0.059906
1324.000000	0.059058
1322.000000	0.058197
1320.000000	0.057319
1318.000000	0.056409
1316.000000	0.055473
1314.000000	0.054521
1312.000000	0.053557
1310.000000	0.052590
1308.000000	0.051626
1306.000000	0.050670
1304.000000	0.049737
1302.000000	0.048846
1300.000000	0.047991
1298.000000	0.047154
1296.000000	0.046330
1294.000000	0.045516
1292.000000	0.044716
1290.000000	0.043937
1288.000000	0.043171
1286.000000	0.042417
1284.000000	0.041689
1282.000000	0.041000
1280.000000	0.040354
1278.000000	0.039753
1276.000000	0.039192
1274.000000	0.038662
1272.000000	0.038156
1270.000000	0.037673
1268.000000	0.037203
1266.000000	0.036742
1264.000000	0.036290
1262.000000	0.035844
1260.000000	0.035403
1258.000000	0.034973
1256.000000	0.034562
1254.000000	0.034175
1252.000000	0.033804
1250.000000	0.033435
1248.000000	0.033060
1246.000000	0.032685
1244.000000	0.032308
1242.000000	0.031925
1240.000000	0.031530
1238.000000	0.031106
1236.000000	0.030643
1234.000000	0.030163
1232.000000	0.029678
1230.000000	0.029173
1228.000000	0.028643
1226.000000	0.028094
1224.000000	0.027528
1222.000000	0.026951
1220.000000	0.026378
1218.000000	0.025805
1216.000000	0.025226
1214.000000	0.024653
1212.000000	0.024089
1210.000000	0.023522
1208.000000	0.022938
1206.000000	0.022327
1204.000000	0.021685
1202.000000	0.021017
1200.000000	0.020337
1198.000000	0.019658
1196.000000	0.018994
1194.000000	0.018359
1192.000000	0.017769
1190.000000	0.017254
1188.000000	0.016831
1186.000000	0.016488
1184.000000	0.016202
1182.000000	0.015950
1180.000000	0.015718
1178.000000	0.015495
1176.000000	0.015259
1174.000000	0.014979
1172.000000	0.014642
1170.000000	0.014257
1168.000000	0.013847
1166.000000	0.013424
1164.000000	0.012988
1162.000000	0.012533
1160.000000	0.012070
1158.000000	0.011632
1156.000000	0.011254
1154.000000	0.010920
1152.000000	0.010591
1150.000000	0.010270
1148.000000	0.009983
1146.000000	0.009740
1144.000000	0.009544
1142.000000	0.009391
1140.000000	0.009240
1138.000000	0.009078
1136.000000	0.008942
1134.000000	0.008862
1132.000000	0.008827
1130.000000	0.008815
1128.000000	0.008797
1126.000000	0.008762
1124.000000	0.008735
1122.000000	0.008723
1120.000000	0.008682
1118.000000	0.008568
1116.000000	0.008380
1114.000000	0.008129
1112.000000	0.007833
1110.000000	0.007525
1108.000000	0.007235
1106.000000	0.007000
1104.000000	0.006888
1102.000000	0.006940
1100.000000	0.007138
1098.000000	0.007423
1096.000000	0.007754
1094.000000	0.008120
1092.000000	0.008474
1090.000000	0.008706
1088.000000	0.008700
1086.000000	0.008388
1084.000000	0.007779
1082.000000	0.006963
1080.000000	0.006024
1078.000000	0.004981
1076.000000	0.003836
1074.000000	0.002642
1072.000000	0.001466
1070.000000	0.000362
1068.000000	-0.000639
1066.000000	-0.001547
1064.000000	-0.002397
1062.000000	-0.003222
1060.000000	-0.004020
1058.000000	-0.004780
1056.000000	-0.005502
1054.000000	-0.006193
1052.000000	-0.006869
1050.000000	-0.007557
1048.000000	-0.008261
1046.000000	-0.008961
1044.000000	-0.009649
1042.000000	-0.010326
1040.000000	-0.010976
1038.000000	-0.011586
1036.000000	-0.012149
1034.000000	-0.012669
1032.000000	-0.013159
1030.000000	-0.013640
1028.000000	-0.014131
1026.000000	-0.014650
1024.000000	-0.015203
1022.000000	-0.015785
1020.000000	-0.016393
1018.000000	-0.017031
1016.000000	-0.017687
1014.000000	-0.018347
1012.000000	-0.019010
1010.000000	-0.019657
1008.000000	-0.020270
1006.000000	-0.020858
1004.000000	-0.021435
1002.000000	-0.022006
1000.000000	-0.022576
998.000000	-0.023133
996.000000	-0.023651
994.000000	-0.024134
992.000000	-0.024600
990.000000	-0.025056
988.000000	-0.025498
986.000000	-0.025936
984.000000	-0.026360
982.000000	-0.026743
980.000000	-0.027094
978.000000	-0.027426
976.000000	-0.027718
974.000000	-0.027943
972.000000	-0.028108
970.000000	-0.028213
968.000000	-0.028257
966.000000	-0.028264
964.000000	-0.028247
962.000000	-0.028194
960.000000	-0.028112
958.000000	-0.028034
956.000000	-0.027971
954.000000	-0.027906
952.000000	-0.027839
950.000000	-0.027763
948.000000	-0.027666
946.000000	-0.027556
944.000000	-0.027440
942.000000	-0.027310
940.000000	-0.027157
938.000000	-0.026982
936.000000	-0.026789
934.000000	-0.026580
932.000000	-0.026373
930.000000	-0.026181
928.000000	-0.025991
926.000000	-0.025794
924.000000	-0.025591
922.000000	-0.025381
920.000000	-0.025148
918.000000	-0.024865
916.000000	-0.024510
914.000000	-0.024085
912.000000	-0.023590
910.000000	-0.023005
908.000000	-0.022321
906.000000	-0.021541
904.000000	-0.020677
902.000000	-0.019756
900.000000	-0.018783
898.000000	-0.017713
896.000000	-0.016482
894.000000	-0.015054
892.000000	-0.013425
890.000000	-0.011571
888.000000	-0.009445
886.000000	-0.007012
884.000000	-0.004313
882.000000	-0.001429
880.000000	0.001557
878.000000	0.004553
876.000000	0.007453
874.000000	0.010126
872.000000	0.012375
870.000000	0.013979
868.000000	0.014799
866.000000	0.014786
864.000000	0.013891
862.000000	0.012058
860.000000	0.009279
858.000000	0.005600
856.000000	0.001190
854.000000	-0.003659
852.000000	-0.008632
850.000000	-0.013479
848.000000	-0.018016
846.000000	-0.022106
844.000000	-0.025660
842.000000	-0.028617
840.000000	-0.030941
838.000000	-0.032676
836.000000	-0.033915
834.000000	-0.034745
832.000000	-0.035250
830.000000	-0.035510
828.000000	-0.035563
826.000000	-0.035423
824.000000	-0.035136
822.000000	-0.034745
820.000000	-0.034275
818.000000	-0.033780
816.000000	-0.033312
814.000000	-0.032888
812.000000	-0.032529
810.000000	-0.032255
808.000000	-0.032054
806.000000	-0.031883
804.000000	-0.031701
802.000000	-0.031482
800.000000	-0.031222
798.000000	-0.030928
796.000000	-0.030590
794.000000	-0.030170
792.000000	-0.029645
790.000000	-0.029083
788.000000	-0.028596
786.000000	-0.028241
784.000000	-0.028006
782.000000	-0.027837
780.000000	-0.027688
778.000000	-0.027578
776.000000	-0.027521
774.000000	-0.027458
772.000000	-0.027319
770.000000	-0.027065
768.000000	-0.026674
766.000000	-0.026138
764.000000	-0.025501
762.000000	-0.024804
760.000000	-0.024041
758.000000	-0.023239
756.000000	-0.022436
754.000000	-0.021638
752.000000	-0.020877
750.000000	-0.020279
748.000000	-0.019959
746.000000	-0.019889
744.000000	-0.019980
742.000000	-0.020169
740.000000	-0.020409
738.000000	-0.020693
736.000000	-0.021031
734.000000	-0.021304
732.000000	-0.021200
730.000000	-0.020535
728.000000	-0.019498
726.000000	-0.018457
724.000000	-0.017618
722.000000	-0.016809
720.000000	-0.015845
718.000000	-0.014831
716.000000	-0.013911
714.000000	-0.013178
712.000000	-0.012577
710.000000	-0.011702
708.000000	-0.010009
706.000000	-0.007463
704.000000	-0.004614
702.000000	-0.001613
700.000000	0.001661
