PE IR       SUBTECH     SPECTRUM    ASCII       PEDS        4.00        
   -1
LC2_unf.asc
14/08/27
11:03:44.00
14/08/28
14:25:42.00
nystrom.12
Co-added spectrum 2 at 2261, -2622 (Image Marker 1)
700.000000
#HDR
-1
-1
#GR
cm-1
A
1.0
0.0
4000.000000
-2.000000
1651
8
0.063914
-0.106888
#DATA
4000.000000	0.033943
3998.000000	0.033413
3996.000000	0.032868
3994.000000	0.032350
3992.000000	0.031913
3990.000000	0.031601
3988.000000	0.031399
3986.000000	0.031247
3984.000000	0.031109
3982.000000	0.031006
3980.000000	0.030955
3978.000000	0.030932
3976.000000	0.030901
3974.000000	0.030829
3972.000000	0.030720
3970.000000	0.030632
3968.000000	0.030591
3966.000000	0.030563
3964.000000	0.030522
3962.000000	0.030457
3960.000000	0.030375
3958.000000	0.030294
3956.000000	0.030220
3954.000000	0.030115
3952.000000	0.029956
3950.000000	0.029767
3948.000000	0.029574
3946.000000	0.029395
3944.000000	0.029273
3942.000000	0.029237
3940.000000	0.029289
3938.000000	0.029438
3936.000000	0.029667
3934.000000	0.029922
3932.000000	0.030200
3930.000000	0.030518
3928.000000	0.030827
3926.000000	0.031054
3924.000000	0.031155
3922.000000	0.031094
3920.000000	0.030870
3918.000000	0.030554
3916.000000	0.030239
3914.000000	0.029958
3912.000000	0.029747
3910.000000	0.029616
3908.000000	0.029541
3906.000000	0.029527
3904.000000	0.029595
3902.000000	0.029742
3900.000000	0.029890
3898.000000	0.029936
3896.000000	0.029824
3894.000000	0.029581
3892.000000	0.029281
3890.000000	0.028923
3888.000000	0.028462
3886.000000	0.028006
3884.000000	0.027678
3882.000000	0.027428
3880.000000	0.027202
3878.000000	0.027001
3876.000000	0.026855
3874.000000	0.026861
3872.000000	0.027081
3870.000000	0.027385
3868.000000	0.027594
3866.000000	0.027754
3864.000000	0.028050
3862.000000	0.028480
3860.000000	0.028826
3858.000000	0.028982
3856.000000	0.028937
3854.000000	0.028783
3852.000000	0.028733
3850.000000	0.028674
3848.000000	0.028438
3846.000000	0.028049
3844.000000	0.027700
3842.000000	0.027524
3840.000000	0.027487
3838.000000	0.027585
3836.000000	0.027721
3834.000000	0.027770
3832.000000	0.027806
3830.000000	0.027891
3828.000000	0.027965
3826.000000	0.027925
3824.000000	0.027734
3822.000000	0.027458
3820.000000	0.027165
3818.000000	0.026821
3816.000000	0.026544
3814.000000	0.026337
3812.000000	0.026075
3810.000000	0.025835
3808.000000	0.025742
3806.000000	0.025808
3804.000000	0.025956
3802.000000	0.026185
3800.000000	0.026442
3798.000000	0.026618
3796.000000	0.026824
3794.000000	0.027100
3792.000000	0.027345
3790.000000	0.027486
3788.000000	0.027506
3786.000000	0.027429
3784.000000	0.027301
3782.000000	0.027152
3780.000000	0.026991
3778.000000	0.026807
3776.000000	0.026515
3774.000000	0.026122
3772.000000	0.025720
3770.000000	0.025356
3768.000000	0.025019
3766.000000	0.024693
3764.000000	0.024356
3762.000000	0.023977
3760.000000	0.023648
3758.000000	0.023494
3756.000000	0.023443
3754.000000	0.023376
3752.000000	0.023285
3750.000000	0.023268
3748.000000	0.023442
3746.000000	0.023832
3744.000000	0.024347
3742.000000	0.024794
3740.000000	0.025108
3738.000000	0.025373
3736.000000	0.025682
3734.000000	0.026054
3732.000000	0.026279
3730.000000	0.026194
3728.000000	0.025885
3726.000000	0.025532
3724.000000	0.025258
3722.000000	0.025040
3720.000000	0.024811
3718.000000	0.024494
3716.000000	0.024126
3714.000000	0.023839
3712.000000	0.023693
3710.000000	0.023661
3708.000000	0.023607
3706.000000	0.023461
3704.000000	0.023304
3702.000000	0.023280
3700.000000	0.023397
3698.000000	0.023553
3696.000000	0.023680
3694.000000	0.023730
3692.000000	0.023709
3690.000000	0.023728
3688.000000	0.023871
3686.000000	0.023958
3684.000000	0.023926
3682.000000	0.023860
3680.000000	0.023809
3678.000000	0.023818
3676.000000	0.023949
3674.000000	0.024181
3672.000000	0.024390
3670.000000	0.024589
3668.000000	0.024758
3666.000000	0.024786
3664.000000	0.024755
3662.000000	0.024792
3660.000000	0.024878
3658.000000	0.024942
3656.000000	0.024970
3654.000000	0.024955
3652.000000	0.024927
3650.000000	0.025016
3648.000000	0.025243
3646.000000	0.025312
3644.000000	0.025136
3642.000000	0.024812
3640.000000	0.024464
3638.000000	0.024148
3636.000000	0.023844
3634.000000	0.023515
3632.000000	0.023114
3630.000000	0.022688
3628.000000	0.022416
3626.000000	0.022374
3624.000000	0.022430
3622.000000	0.022534
3620.000000	0.022693
3618.000000	0.022907
3616.000000	0.023164
3614.000000	0.023463
3612.000000	0.023749
3610.000000	0.023915
3608.000000	0.023952
3606.000000	0.023839
3604.000000	0.023554
3602.000000	0.023150
3600.000000	0.022714
3598.000000	0.022309
3596.000000	0.021930
3594.000000	0.021585
3592.000000	0.021307
3590.000000	0.021122
3588.000000	0.021045
3586.000000	0.021064
3584.000000	0.021096
3582.000000	0.021045
3580.000000	0.020908
3578.000000	0.020714
3576.000000	0.020468
3574.000000	0.020196
3572.000000	0.019926
3570.000000	0.019660
3568.000000	0.019436
3566.000000	0.019346
3564.000000	0.019381
3562.000000	0.019489
3560.000000	0.019667
3558.000000	0.019861
3556.000000	0.020028
3554.000000	0.020179
3552.000000	0.020333
3550.000000	0.020472
3548.000000	0.020571
3546.000000	0.020616
3544.000000	0.020582
3542.000000	0.020516
3540.000000	0.020491
3538.000000	0.020491
3536.000000	0.020469
3534.000000	0.020414
3532.000000	0.020349
3530.000000	0.020301
3528.000000	0.020303
3526.000000	0.020320
3524.000000	0.020271
3522.000000	0.020154
3520.000000	0.019990
3518.000000	0.019769
3516.000000	0.019482
3514.000000	0.019130
3512.000000	0.018717
3510.000000	0.018277
3508.000000	0.017880
3506.000000	0.017565
3504.000000	0.017326
3502.000000	0.017173
3500.000000	0.017116
3498.000000	0.017125
3496.000000	0.017163
3494.000000	0.017235
3492.000000	0.017340
3490.000000	0.017462
3488.000000	0.017607
3486.000000	0.017762
3484.000000	0.017890
3482.000000	0.018008
3480.000000	0.018159
3478.000000	0.018301
3476.000000	0.018372
3474.000000	0.018367
3472.000000	0.018309
3470.000000	0.018223
3468.000000	0.018133
3466.000000	0.018042
3464.000000	0.017935
3462.000000	0.017828
3460.000000	0.017759
3458.000000	0.017713
3456.000000	0.017655
3454.000000	0.017605
3452.000000	0.017587
3450.000000	0.017570
3448.000000	0.017524
3446.000000	0.017463
3444.000000	0.017399
3442.000000	0.017353
3440.000000	0.017309
3438.000000	0.017205
3436.000000	0.017019
3434.000000	0.016802
3432.000000	0.016633
3430.000000	0.016540
3428.000000	0.016495
3426.000000	0.016457
3424.000000	0.016424
3422.000000	0.016458
3420.000000	0.016586
3418.000000	0.016751
3416.000000	0.016882
3414.000000	0.016947
3412.000000	0.016937
3410.000000	0.016857
3408.000000	0.016731
3406.000000	0.016580
3404.000000	0.016410
3402.000000	0.016253
3400.000000	0.016147
3398.000000	0.016076
3396.000000	0.016036
3394.000000	0.016070
3392.000000	0.016182
3390.000000	0.016315
3388.000000	0.016413
3386.000000	0.016437
3384.000000	0.016376
3382.000000	0.016244
3380.000000	0.016043
3378.000000	0.015763
3376.000000	0.015432
3374.000000	0.015095
3372.000000	0.014789
3370.000000	0.014575
3368.000000	0.014488
3366.000000	0.014500
3364.000000	0.014585
3362.000000	0.014739
3360.000000	0.014935
3358.000000	0.015147
3356.000000	0.015382
3354.000000	0.015608
3352.000000	0.015757
3350.000000	0.015830
3348.000000	0.015864
3346.000000	0.015853
3344.000000	0.015780
3342.000000	0.015664
3340.000000	0.015498
3338.000000	0.015271
3336.000000	0.015020
3334.000000	0.014775
3332.000000	0.014534
3330.000000	0.014312
3328.000000	0.014144
3326.000000	0.014043
3324.000000	0.014007
3322.000000	0.014045
3320.000000	0.014157
3318.000000	0.014328
3316.000000	0.014560
3314.000000	0.014839
3312.000000	0.015107
3310.000000	0.015315
3308.000000	0.015474
3306.000000	0.015607
3304.000000	0.015714
3302.000000	0.015765
3300.000000	0.015726
3298.000000	0.015610
3296.000000	0.015464
3294.000000	0.015332
3292.000000	0.015222
3290.000000	0.015113
3288.000000	0.015003
3286.000000	0.014930
3284.000000	0.014940
3282.000000	0.015022
3280.000000	0.015133
3278.000000	0.015258
3276.000000	0.015387
3274.000000	0.015535
3272.000000	0.015723
3270.000000	0.015896
3268.000000	0.016003
3266.000000	0.016066
3264.000000	0.016133
3262.000000	0.016198
3260.000000	0.016247
3258.000000	0.016284
3256.000000	0.016281
3254.000000	0.016239
3252.000000	0.016201
3250.000000	0.016151
3248.000000	0.016029
3246.000000	0.015841
3244.000000	0.015666
3242.000000	0.015545
3240.000000	0.015465
3238.000000	0.015406
3236.000000	0.015345
3234.000000	0.015287
3232.000000	0.015294
3230.000000	0.015402
3228.000000	0.015562
3226.000000	0.015701
3224.000000	0.015778
3222.000000	0.015784
3220.000000	0.015762
3218.000000	0.015752
3216.000000	0.015726
3214.000000	0.015655
3212.000000	0.015539
3210.000000	0.015380
3208.000000	0.015198
3206.000000	0.015055
3204.000000	0.015000
3202.000000	0.015029
3200.000000	0.015128
3198.000000	0.015261
3196.000000	0.015389
3194.000000	0.015535
3192.000000	0.015735
3190.000000	0.015952
3188.000000	0.016131
3186.000000	0.016231
3184.000000	0.016224
3182.000000	0.016155
3180.000000	0.016097
3178.000000	0.016061
3176.000000	0.016037
3174.000000	0.016028
3172.000000	0.016043
3170.000000	0.016094
3168.000000	0.016174
3166.000000	0.016264
3164.000000	0.016356
3162.000000	0.016440
3160.000000	0.016490
3158.000000	0.016505
3156.000000	0.016497
3154.000000	0.016438
3152.000000	0.016322
3150.000000	0.016203
3148.000000	0.016111
3146.000000	0.016035
3144.000000	0.015963
3142.000000	0.015872
3140.000000	0.015751
3138.000000	0.015650
3136.000000	0.015614
3134.000000	0.015620
3132.000000	0.015628
3130.000000	0.015627
3128.000000	0.015634
3126.000000	0.015680
3124.000000	0.015781
3122.000000	0.015899
3120.000000	0.015984
3118.000000	0.016053
3116.000000	0.016134
3114.000000	0.016208
3112.000000	0.016230
3110.000000	0.016200
3108.000000	0.016157
3106.000000	0.016140
3104.000000	0.016146
3102.000000	0.016147
3100.000000	0.016116
3098.000000	0.016055
3096.000000	0.016013
3094.000000	0.016021
3092.000000	0.016036
3090.000000	0.016007
3088.000000	0.015958
3086.000000	0.015948
3084.000000	0.015992
3082.000000	0.016073
3080.000000	0.016168
3078.000000	0.016255
3076.000000	0.016345
3074.000000	0.016477
3072.000000	0.016651
3070.000000	0.016807
3068.000000	0.016907
3066.000000	0.016985
3064.000000	0.017066
3062.000000	0.017139
3060.000000	0.017214
3058.000000	0.017278
3056.000000	0.017308
3054.000000	0.017321
3052.000000	0.017348
3050.000000	0.017387
3048.000000	0.017423
3046.000000	0.017461
3044.000000	0.017495
3042.000000	0.017515
3040.000000	0.017529
3038.000000	0.017548
3036.000000	0.017573
3034.000000	0.017616
3032.000000	0.017674
3030.000000	0.017729
3028.000000	0.017787
3026.000000	0.017870
3024.000000	0.017975
3022.000000	0.018073
3020.000000	0.018144
3018.000000	0.018178
3016.000000	0.018182
3014.000000	0.018180
3012.000000	0.018173
3010.000000	0.018145
3008.000000	0.018092
3006.000000	0.018046
3004.000000	0.018024
3002.000000	0.018013
3000.000000	0.018015
2998.000000	0.018022
2996.000000	0.018021
2994.000000	0.018037
2992.000000	0.018106
2990.000000	0.018219
2988.000000	0.018359
2986.000000	0.018511
2984.000000	0.018667
2982.000000	0.018831
2980.000000	0.018975
2978.000000	0.019040
2976.000000	0.018998
2974.000000	0.018878
2972.000000	0.018720
2970.000000	0.018555
2968.000000	0.018383
2966.000000	0.018192
2964.000000	0.018013
2962.000000	0.017920
2960.000000	0.017943
2958.000000	0.018004
2956.000000	0.018047
2954.000000	0.018056
2952.000000	0.018039
2950.000000	0.018003
2948.000000	0.017959
2946.000000	0.017892
2944.000000	0.017777
2942.000000	0.017637
2940.000000	0.017506
2938.000000	0.017408
2936.000000	0.017368
2934.000000	0.017390
2932.000000	0.017438
2930.000000	0.017494
2928.000000	0.017571
2926.000000	0.017662
2924.000000	0.017752
2922.000000	0.017818
2920.000000	0.017817
2918.000000	0.017731
2916.000000	0.017579
2914.000000	0.017383
2912.000000	0.017159
2910.000000	0.016943
2908.000000	0.016766
2906.000000	0.016625
2904.000000	0.016530
2902.000000	0.016492
2900.000000	0.016494
2898.000000	0.016525
2896.000000	0.016580
2894.000000	0.016646
2892.000000	0.016701
2890.000000	0.016730
2888.000000	0.016749
2886.000000	0.016784
2884.000000	0.016848
2882.000000	0.016936
2880.000000	0.017015
2878.000000	0.017071
2876.000000	0.017129
2874.000000	0.017205
2872.000000	0.017258
2870.000000	0.017242
2868.000000	0.017189
2866.000000	0.017146
2864.000000	0.017131
2862.000000	0.017135
2860.000000	0.017125
2858.000000	0.017084
2856.000000	0.017073
2854.000000	0.017162
2852.000000	0.017304
2850.000000	0.017409
2848.000000	0.017468
2846.000000	0.017519
2844.000000	0.017602
2842.000000	0.017730
2840.000000	0.017857
2838.000000	0.017910
2836.000000	0.017891
2834.000000	0.017860
2832.000000	0.017842
2830.000000	0.017802
2828.000000	0.017709
2826.000000	0.017567
2824.000000	0.017394
2822.000000	0.017212
2820.000000	0.017055
2818.000000	0.016917
2816.000000	0.016762
2814.000000	0.016595
2812.000000	0.016447
2810.000000	0.016325
2808.000000	0.016204
2806.000000	0.016076
2804.000000	0.015951
2802.000000	0.015838
2800.000000	0.015763
2798.000000	0.015754
2796.000000	0.015803
2794.000000	0.015876
2792.000000	0.015962
2790.000000	0.016093
2788.000000	0.016279
2786.000000	0.016499
2784.000000	0.016705
2782.000000	0.016875
2780.000000	0.017011
2778.000000	0.017106
2776.000000	0.017153
2774.000000	0.017168
2772.000000	0.017153
2770.000000	0.017091
2768.000000	0.016997
2766.000000	0.016916
2764.000000	0.016863
2762.000000	0.016833
2760.000000	0.016840
2758.000000	0.016866
2756.000000	0.016859
2754.000000	0.016815
2752.000000	0.016783
2750.000000	0.016761
2748.000000	0.016709
2746.000000	0.016623
2744.000000	0.016529
2742.000000	0.016438
2740.000000	0.016366
2738.000000	0.016327
2736.000000	0.016295
2734.000000	0.016245
2732.000000	0.016182
2730.000000	0.016116
2728.000000	0.016044
2726.000000	0.015977
2724.000000	0.015933
2722.000000	0.015899
2720.000000	0.015854
2718.000000	0.015793
2716.000000	0.015747
2714.000000	0.015747
2712.000000	0.015779
2710.000000	0.015796
2708.000000	0.015761
2706.000000	0.015694
2704.000000	0.015644
2702.000000	0.015637
2700.000000	0.015643
2698.000000	0.015601
2696.000000	0.015491
2694.000000	0.015346
2692.000000	0.015215
2690.000000	0.015115
2688.000000	0.015017
2686.000000	0.014891
2684.000000	0.014737
2682.000000	0.014589
2680.000000	0.014479
2678.000000	0.014403
2676.000000	0.014332
2674.000000	0.014245
2672.000000	0.014144
2670.000000	0.014029
2668.000000	0.013898
2666.000000	0.013775
2664.000000	0.013665
2662.000000	0.013544
2660.000000	0.013413
2658.000000	0.013298
2656.000000	0.013210
2654.000000	0.013160
2652.000000	0.013177
2650.000000	0.013261
2648.000000	0.013395
2646.000000	0.013582
2644.000000	0.013817
2642.000000	0.014072
2640.000000	0.014306
2638.000000	0.014488
2636.000000	0.014597
2634.000000	0.014635
2632.000000	0.014593
2630.000000	0.014473
2628.000000	0.014295
2626.000000	0.014075
2624.000000	0.013847
2622.000000	0.013645
2620.000000	0.013461
2618.000000	0.013309
2616.000000	0.013207
2614.000000	0.013139
2612.000000	0.013101
2610.000000	0.013109
2608.000000	0.013155
2606.000000	0.013202
2604.000000	0.013225
2602.000000	0.013205
2600.000000	0.013123
2598.000000	0.013016
2596.000000	0.012923
2594.000000	0.012841
2592.000000	0.012751
2590.000000	0.012652
2588.000000	0.012571
2586.000000	0.012549
2584.000000	0.012610
2582.000000	0.012739
2580.000000	0.012877
2578.000000	0.012983
2576.000000	0.013070
2574.000000	0.013174
2572.000000	0.013300
2570.000000	0.013422
2568.000000	0.013508
2566.000000	0.013550
2564.000000	0.013564
2562.000000	0.013564
2560.000000	0.013545
2558.000000	0.013496
2556.000000	0.013427
2554.000000	0.013382
2552.000000	0.013364
2550.000000	0.013344
2548.000000	0.013327
2546.000000	0.013315
2544.000000	0.013280
2542.000000	0.013238
2540.000000	0.013225
2538.000000	0.013206
2536.000000	0.013136
2534.000000	0.013023
2532.000000	0.012884
2530.000000	0.012742
2528.000000	0.012635
2526.000000	0.012585
2524.000000	0.012567
2522.000000	0.012542
2520.000000	0.012517
2518.000000	0.012527
2516.000000	0.012607
2514.000000	0.012768
2512.000000	0.012969
2510.000000	0.013149
2508.000000	0.013290
2506.000000	0.013414
2504.000000	0.013530
2502.000000	0.013625
2500.000000	0.013661
2498.000000	0.013583
2496.000000	0.013394
2494.000000	0.013144
2492.000000	0.012848
2490.000000	0.012480
2488.000000	0.012056
2486.000000	0.011619
2484.000000	0.011187
2482.000000	0.010784
2480.000000	0.010432
2478.000000	0.010108
2476.000000	0.009797
2474.000000	0.009534
2472.000000	0.009341
2470.000000	0.009195
2468.000000	0.009072
2466.000000	0.008957
2464.000000	0.008840
2462.000000	0.008727
2460.000000	0.008628
2458.000000	0.008530
2456.000000	0.008415
2454.000000	0.008265
2452.000000	0.008069
2450.000000	0.007853
2448.000000	0.007639
2446.000000	0.007427
2444.000000	0.007217
2442.000000	0.007006
2440.000000	0.006790
2438.000000	0.006599
2436.000000	0.006471
2434.000000	0.006404
2432.000000	0.006375
2430.000000	0.006361
2428.000000	0.006348
2426.000000	0.006323
2424.000000	0.006281
2422.000000	0.006221
2420.000000	0.006125
2418.000000	0.005971
2416.000000	0.005761
2414.000000	0.005517
2412.000000	0.005268
2410.000000	0.005033
2408.000000	0.004815
2406.000000	0.004623
2404.000000	0.004474
2402.000000	0.004360
2400.000000	0.004251
2398.000000	0.004128
2396.000000	0.003982
2394.000000	0.003825
2392.000000	0.003700
2390.000000	0.003619
2388.000000	0.003545
2386.000000	0.003456
2384.000000	0.003350
2382.000000	0.003156
2380.000000	0.002760
2378.000000	0.002140
2376.000000	0.001325
2374.000000	0.000330
2372.000000	-0.000789
2370.000000	-0.001964
2368.000000	-0.003119
2366.000000	-0.004055
2364.000000	-0.004484
2362.000000	-0.004270
2360.000000	-0.003555
2358.000000	-0.002494
2356.000000	-0.001184
2354.000000	0.000277
2352.000000	0.001721
2350.000000	0.002985
2348.000000	0.003924
2346.000000	0.004388
2344.000000	0.004336
2342.000000	0.003864
2340.000000	0.003111
2338.000000	0.002218
2336.000000	0.001341
2334.000000	0.000514
2332.000000	-0.000303
2330.000000	-0.001028
2328.000000	-0.001538
2326.000000	-0.001809
2324.000000	-0.001891
2322.000000	-0.001872
2320.000000	-0.001838
2318.000000	-0.001775
2316.000000	-0.001628
2314.000000	-0.001410
2312.000000	-0.001192
2310.000000	-0.001048
2308.000000	-0.000997
2306.000000	-0.001015
2304.000000	-0.001075
2302.000000	-0.001167
2300.000000	-0.001305
2298.000000	-0.001501
2296.000000	-0.001747
2294.000000	-0.002012
2292.000000	-0.002279
2290.000000	-0.002531
2288.000000	-0.002744
2286.000000	-0.002909
2284.000000	-0.003039
2282.000000	-0.003135
2280.000000	-0.003189
2278.000000	-0.003212
2276.000000	-0.003211
2274.000000	-0.003195
2272.000000	-0.003186
2270.000000	-0.003196
2268.000000	-0.003228
2266.000000	-0.003303
2264.000000	-0.003416
2262.000000	-0.003529
2260.000000	-0.003629
2258.000000	-0.003728
2256.000000	-0.003830
2254.000000	-0.003941
2252.000000	-0.004070
2250.000000	-0.004205
2248.000000	-0.004331
2246.000000	-0.004461
2244.000000	-0.004616
2242.000000	-0.004789
2240.000000	-0.004975
2238.000000	-0.005178
2236.000000	-0.005379
2234.000000	-0.005565
2232.000000	-0.005732
2230.000000	-0.005884
2228.000000	-0.006017
2226.000000	-0.006142
2224.000000	-0.006283
2222.000000	-0.006430
2220.000000	-0.006553
2218.000000	-0.006652
2216.000000	-0.006736
2214.000000	-0.006798
2212.000000	-0.006844
2210.000000	-0.006881
2208.000000	-0.006890
2206.000000	-0.006855
2204.000000	-0.006804
2202.000000	-0.006758
2200.000000	-0.006730
2198.000000	-0.006737
2196.000000	-0.006781
2194.000000	-0.006849
2192.000000	-0.006953
2190.000000	-0.007112
2188.000000	-0.007316
2186.000000	-0.007551
2184.000000	-0.007828
2182.000000	-0.008132
2180.000000	-0.008433
2178.000000	-0.008727
2176.000000	-0.009023
2174.000000	-0.009308
2172.000000	-0.009575
2170.000000	-0.009830
2168.000000	-0.010065
2166.000000	-0.010267
2164.000000	-0.010437
2162.000000	-0.010589
2160.000000	-0.010718
2158.000000	-0.010815
2156.000000	-0.010880
2154.000000	-0.010914
2152.000000	-0.010911
2150.000000	-0.010883
2148.000000	-0.010853
2146.000000	-0.010841
2144.000000	-0.010833
2142.000000	-0.010818
2140.000000	-0.010808
2138.000000	-0.010811
2136.000000	-0.010831
2134.000000	-0.010867
2132.000000	-0.010902
2130.000000	-0.010903
2128.000000	-0.010865
2126.000000	-0.010805
2124.000000	-0.010739
2122.000000	-0.010682
2120.000000	-0.010641
2118.000000	-0.010611
2116.000000	-0.010589
2114.000000	-0.010593
2112.000000	-0.010654
2110.000000	-0.010773
2108.000000	-0.010921
2106.000000	-0.011065
2104.000000	-0.011176
2102.000000	-0.011256
2100.000000	-0.011342
2098.000000	-0.011447
2096.000000	-0.011539
2094.000000	-0.011595
2092.000000	-0.011637
2090.000000	-0.011686
2088.000000	-0.011761
2086.000000	-0.011875
2084.000000	-0.011998
2082.000000	-0.012103
2080.000000	-0.012212
2078.000000	-0.012351
2076.000000	-0.012493
2074.000000	-0.012605
2072.000000	-0.012692
2070.000000	-0.012756
2068.000000	-0.012799
2066.000000	-0.012820
2064.000000	-0.012802
2062.000000	-0.012745
2060.000000	-0.012681
2058.000000	-0.012639
2056.000000	-0.012614
2054.000000	-0.012581
2052.000000	-0.012528
2050.000000	-0.012477
2048.000000	-0.012442
2046.000000	-0.012428
2044.000000	-0.012432
2042.000000	-0.012442
2040.000000	-0.012451
2038.000000	-0.012462
2036.000000	-0.012474
2034.000000	-0.012482
2032.000000	-0.012491
2030.000000	-0.012504
2028.000000	-0.012501
2026.000000	-0.012462
2024.000000	-0.012400
2022.000000	-0.012330
2020.000000	-0.012255
2018.000000	-0.012182
2016.000000	-0.012110
2014.000000	-0.012034
2012.000000	-0.011957
2010.000000	-0.011885
2008.000000	-0.011815
2006.000000	-0.011736
2004.000000	-0.011655
2002.000000	-0.011590
2000.000000	-0.011541
1998.000000	-0.011514
1996.000000	-0.011515
1994.000000	-0.011545
1992.000000	-0.011597
1990.000000	-0.011669
1988.000000	-0.011761
1986.000000	-0.011848
1984.000000	-0.011898
1982.000000	-0.011905
1980.000000	-0.011871
1978.000000	-0.011795
1976.000000	-0.011688
1974.000000	-0.011574
1972.000000	-0.011467
1970.000000	-0.011366
1968.000000	-0.011288
1966.000000	-0.011260
1964.000000	-0.011292
1962.000000	-0.011377
1960.000000	-0.011502
1958.000000	-0.011661
1956.000000	-0.011844
1954.000000	-0.012036
1952.000000	-0.012235
1950.000000	-0.012438
1948.000000	-0.012619
1946.000000	-0.012766
1944.000000	-0.012888
1942.000000	-0.012984
1940.000000	-0.013046
1938.000000	-0.013075
1936.000000	-0.013077
1934.000000	-0.013049
1932.000000	-0.012998
1930.000000	-0.012944
1928.000000	-0.012893
1926.000000	-0.012835
1924.000000	-0.012771
1922.000000	-0.012723
1920.000000	-0.012717
1918.000000	-0.012759
1916.000000	-0.012837
1914.000000	-0.012932
1912.000000	-0.013026
1910.000000	-0.013125
1908.000000	-0.013257
1906.000000	-0.013420
1904.000000	-0.013586
1902.000000	-0.013742
1900.000000	-0.013880
1898.000000	-0.014009
1896.000000	-0.014138
1894.000000	-0.014258
1892.000000	-0.014361
1890.000000	-0.014442
1888.000000	-0.014489
1886.000000	-0.014511
1884.000000	-0.014534
1882.000000	-0.014565
1880.000000	-0.014616
1878.000000	-0.014689
1876.000000	-0.014750
1874.000000	-0.014767
1872.000000	-0.014741
1870.000000	-0.014697
1868.000000	-0.014652
1866.000000	-0.014580
1864.000000	-0.014437
1862.000000	-0.014236
1860.000000	-0.014038
1858.000000	-0.013886
1856.000000	-0.013767
1854.000000	-0.013663
1852.000000	-0.013559
1850.000000	-0.013457
1848.000000	-0.013373
1846.000000	-0.013322
1844.000000	-0.013279
1842.000000	-0.013209
1840.000000	-0.013133
1838.000000	-0.013084
1836.000000	-0.013061
1834.000000	-0.013053
1832.000000	-0.013067
1830.000000	-0.013109
1828.000000	-0.013168
1826.000000	-0.013254
1824.000000	-0.013363
1822.000000	-0.013463
1820.000000	-0.013540
1818.000000	-0.013602
1816.000000	-0.013651
1814.000000	-0.013677
1812.000000	-0.013683
1810.000000	-0.013677
1808.000000	-0.013677
1806.000000	-0.013717
1804.000000	-0.013813
1802.000000	-0.013957
1800.000000	-0.014146
1798.000000	-0.014386
1796.000000	-0.014675
1794.000000	-0.015003
1792.000000	-0.015340
1790.000000	-0.015649
1788.000000	-0.015932
1786.000000	-0.016197
1784.000000	-0.016433
1782.000000	-0.016617
1780.000000	-0.016741
1778.000000	-0.016821
1776.000000	-0.016881
1774.000000	-0.016918
1772.000000	-0.016912
1770.000000	-0.016845
1768.000000	-0.016741
1766.000000	-0.016647
1764.000000	-0.016600
1762.000000	-0.016590
1760.000000	-0.016579
1758.000000	-0.016554
1756.000000	-0.016536
1754.000000	-0.016555
1752.000000	-0.016617
1750.000000	-0.016693
1748.000000	-0.016743
1746.000000	-0.016762
1744.000000	-0.016776
1742.000000	-0.016799
1740.000000	-0.016837
1738.000000	-0.016877
1736.000000	-0.016896
1734.000000	-0.016912
1732.000000	-0.016967
1730.000000	-0.017041
1728.000000	-0.017101
1726.000000	-0.017148
1724.000000	-0.017205
1722.000000	-0.017290
1720.000000	-0.017426
1718.000000	-0.017624
1716.000000	-0.017820
1714.000000	-0.017974
1712.000000	-0.018143
1710.000000	-0.018325
1708.000000	-0.018495
1706.000000	-0.018635
1704.000000	-0.018710
1702.000000	-0.018695
1700.000000	-0.018613
1698.000000	-0.018486
1696.000000	-0.018290
1694.000000	-0.018048
1692.000000	-0.017819
1690.000000	-0.017612
1688.000000	-0.017411
1686.000000	-0.017207
1684.000000	-0.016994
1682.000000	-0.016764
1680.000000	-0.016536
1678.000000	-0.016323
1676.000000	-0.016110
1674.000000	-0.015883
1672.000000	-0.015675
1670.000000	-0.015514
1668.000000	-0.015379
1666.000000	-0.015272
1664.000000	-0.015225
1662.000000	-0.015215
1660.000000	-0.015189
1658.000000	-0.015141
1656.000000	-0.015074
1654.000000	-0.014964
1652.000000	-0.014837
1650.000000	-0.014766
1648.000000	-0.014668
1646.000000	-0.014469
1644.000000	-0.014203
1642.000000	-0.013914
1640.000000	-0.013601
1638.000000	-0.013267
1636.000000	-0.012891
1634.000000	-0.012421
1632.000000	-0.011913
1630.000000	-0.011434
1628.000000	-0.011001
1626.000000	-0.010589
1624.000000	-0.010157
1622.000000	-0.009667
1620.000000	-0.009116
1618.000000	-0.008507
1616.000000	-0.007817
1614.000000	-0.007001
1612.000000	-0.006024
1610.000000	-0.004884
1608.000000	-0.003606
1606.000000	-0.002199
1604.000000	-0.000642
1602.000000	0.001077
1600.000000	0.002954
1598.000000	0.004971
1596.000000	0.007103
1594.000000	0.009336
1592.000000	0.011666
1590.000000	0.014072
1588.000000	0.016498
1586.000000	0.018869
1584.000000	0.021154
1582.000000	0.023363
1580.000000	0.025486
1578.000000	0.027495
1576.000000	0.029384
1574.000000	0.031132
1572.000000	0.032729
1570.000000	0.034216
1568.000000	0.035616
1566.000000	0.036876
1564.000000	0.037962
1562.000000	0.038873
1560.000000	0.039574
1558.000000	0.040018
1556.000000	0.040219
1554.000000	0.040222
1552.000000	0.040079
1550.000000	0.039835
1548.000000	0.039531
1546.000000	0.039200
1544.000000	0.038908
1542.000000	0.038785
1540.000000	0.038934
1538.000000	0.039269
1536.000000	0.039663
1534.000000	0.040090
1532.000000	0.040577
1530.000000	0.041126
1528.000000	0.041704
1526.000000	0.042254
1524.000000	0.042699
1522.000000	0.043036
1520.000000	0.043354
1518.000000	0.043693
1516.000000	0.044045
1514.000000	0.044394
1512.000000	0.044738
1510.000000	0.045099
1508.000000	0.045531
1506.000000	0.046060
1504.000000	0.046669
1502.000000	0.047374
1500.000000	0.048187
1498.000000	0.049072
1496.000000	0.050002
1494.000000	0.050980
1492.000000	0.051959
1490.000000	0.052893
1488.000000	0.053783
1486.000000	0.054624
1484.000000	0.055372
1482.000000	0.056029
1480.000000	0.056623
1478.000000	0.057169
1476.000000	0.057678
1474.000000	0.058161
1472.000000	0.058615
1470.000000	0.059037
1468.000000	0.059409
1466.000000	0.059720
1464.000000	0.059956
1462.000000	0.060103
1460.000000	0.060152
1458.000000	0.060101
1456.000000	0.059992
1454.000000	0.059890
1452.000000	0.059780
1450.000000	0.059663
1448.000000	0.059564
1446.000000	0.059519
1444.000000	0.059558
1442.000000	0.059684
1440.000000	0.059874
1438.000000	0.060093
1436.000000	0.060346
1434.000000	0.060659
1432.000000	0.061015
1430.000000	0.061395
1428.000000	0.061775
1426.000000	0.062138
1424.000000	0.062479
1422.000000	0.062806
1420.000000	0.063119
1418.000000	0.063409
1416.000000	0.063666
1414.000000	0.063850
1412.000000	0.063914
1410.000000	0.063843
1408.000000	0.063640
1406.000000	0.063305
1404.000000	0.062843
1402.000000	0.062258
1400.000000	0.061553
1398.000000	0.060755
1396.000000	0.059896
1394.000000	0.058998
1392.000000	0.058057
1390.000000	0.057024
1388.000000	0.055843
1386.000000	0.054491
1384.000000	0.052974
1382.000000	0.051298
1380.000000	0.049502
1378.000000	0.047642
1376.000000	0.045764
1374.000000	0.043934
1372.000000	0.042246
1370.000000	0.040742
1368.000000	0.039418
1366.000000	0.038270
1364.000000	0.037266
1362.000000	0.036357
1360.000000	0.035521
1358.000000	0.034719
1356.000000	0.033887
1354.000000	0.032987
1352.000000	0.032032
1350.000000	0.031042
1348.000000	0.030024
1346.000000	0.028989
1344.000000	0.027950
1342.000000	0.026920
1340.000000	0.025925
1338.000000	0.024996
1336.000000	0.024126
1334.000000	0.023288
1332.000000	0.022478
1330.000000	0.021708
1328.000000	0.020981
1326.000000	0.020300
1324.000000	0.019672
1322.000000	0.019108
1320.000000	0.018629
1318.000000	0.018265
1316.000000	0.018016
1314.000000	0.017874
1312.000000	0.017845
1310.000000	0.017927
1308.000000	0.018101
1306.000000	0.018328
1304.000000	0.018559
1302.000000	0.018765
1300.000000	0.018933
1298.000000	0.019050
1296.000000	0.019092
1294.000000	0.019040
1292.000000	0.018901
1290.000000	0.018695
1288.000000	0.018435
1286.000000	0.018127
1284.000000	0.017770
1282.000000	0.017378
1280.000000	0.016970
1278.000000	0.016548
1276.000000	0.016105
1274.000000	0.015640
1272.000000	0.015165
1270.000000	0.014693
1268.000000	0.014242
1266.000000	0.013811
1264.000000	0.013382
1262.000000	0.012941
1260.000000	0.012490
1258.000000	0.012030
1256.000000	0.011550
1254.000000	0.011040
1252.000000	0.010506
1250.000000	0.009955
1248.000000	0.009408
1246.000000	0.008882
1244.000000	0.008384
1242.000000	0.007913
1240.000000	0.007474
1238.000000	0.007064
1236.000000	0.006658
1234.000000	0.006232
1232.000000	0.005778
1230.000000	0.005296
1228.000000	0.004795
1226.000000	0.004285
1224.000000	0.003778
1222.000000	0.003290
1220.000000	0.002843
1218.000000	0.002452
1216.000000	0.002118
1214.000000	0.001843
1212.000000	0.001613
1210.000000	0.001400
1208.000000	0.001187
1206.000000	0.000967
1204.000000	0.000724
1202.000000	0.000439
1200.000000	0.000115
1198.000000	-0.000249
1196.000000	-0.000655
1194.000000	-0.001083
1192.000000	-0.001508
1190.000000	-0.001926
1188.000000	-0.002333
1186.000000	-0.002710
1184.000000	-0.003048
1182.000000	-0.003342
1180.000000	-0.003580
1178.000000	-0.003766
1176.000000	-0.003907
1174.000000	-0.003998
1172.000000	-0.004043
1170.000000	-0.004052
1168.000000	-0.004019
1166.000000	-0.003945
1164.000000	-0.003850
1162.000000	-0.003744
1160.000000	-0.003641
1158.000000	-0.003551
1156.000000	-0.003446
1154.000000	-0.003302
1152.000000	-0.003134
1150.000000	-0.002948
1148.000000	-0.002735
1146.000000	-0.002488
1144.000000	-0.002189
1142.000000	-0.001816
1140.000000	-0.001404
1138.000000	-0.001005
1136.000000	-0.000625
1134.000000	-0.000263
1132.000000	0.000076
1130.000000	0.000410
1128.000000	0.000728
1126.000000	0.000998
1124.000000	0.001223
1122.000000	0.001441
1120.000000	0.001677
1118.000000	0.001941
1116.000000	0.002218
1114.000000	0.002467
1112.000000	0.002676
1110.000000	0.002882
1108.000000	0.003095
1106.000000	0.003312
1104.000000	0.003540
1102.000000	0.003788
1100.000000	0.004063
1098.000000	0.004368
1096.000000	0.004694
1094.000000	0.005011
1092.000000	0.005287
1090.000000	0.005493
1088.000000	0.005590
1086.000000	0.005520
1084.000000	0.005257
1082.000000	0.004844
1080.000000	0.004341
1078.000000	0.003778
1076.000000	0.003160
1074.000000	0.002508
1072.000000	0.001861
1070.000000	0.001259
1068.000000	0.000722
1066.000000	0.000235
1064.000000	-0.000260
1062.000000	-0.000799
1060.000000	-0.001366
1058.000000	-0.001942
1056.000000	-0.002539
1054.000000	-0.003183
1052.000000	-0.003880
1050.000000	-0.004629
1048.000000	-0.005430
1046.000000	-0.006263
1044.000000	-0.007118
1042.000000	-0.008012
1040.000000	-0.008956
1038.000000	-0.009943
1036.000000	-0.010955
1034.000000	-0.011978
1032.000000	-0.012993
1030.000000	-0.013984
1028.000000	-0.014959
1026.000000	-0.015932
1024.000000	-0.016903
1022.000000	-0.017865
1020.000000	-0.018837
1018.000000	-0.019843
1016.000000	-0.020893
1014.000000	-0.021991
1012.000000	-0.023129
1010.000000	-0.024277
1008.000000	-0.025413
1006.000000	-0.026545
1004.000000	-0.027675
1002.000000	-0.028779
1000.000000	-0.029852
998.000000	-0.030912
996.000000	-0.031965
994.000000	-0.033016
992.000000	-0.034076
990.000000	-0.035153
988.000000	-0.036249
986.000000	-0.037368
984.000000	-0.038496
982.000000	-0.039611
980.000000	-0.040706
978.000000	-0.041788
976.000000	-0.042867
974.000000	-0.043945
972.000000	-0.045002
970.000000	-0.046006
968.000000	-0.046954
966.000000	-0.047885
964.000000	-0.048837
962.000000	-0.049801
960.000000	-0.050742
958.000000	-0.051627
956.000000	-0.052474
954.000000	-0.053337
952.000000	-0.054236
950.000000	-0.055129
948.000000	-0.055975
946.000000	-0.056765
944.000000	-0.057519
942.000000	-0.058271
940.000000	-0.059037
938.000000	-0.059779
936.000000	-0.060463
934.000000	-0.061115
932.000000	-0.061775
930.000000	-0.062460
928.000000	-0.063165
926.000000	-0.063870
924.000000	-0.064543
922.000000	-0.065175
920.000000	-0.065785
918.000000	-0.066377
916.000000	-0.066925
914.000000	-0.067386
912.000000	-0.067735
910.000000	-0.067987
908.000000	-0.068171
906.000000	-0.068282
904.000000	-0.068267
902.000000	-0.068057
900.000000	-0.067614
898.000000	-0.066941
896.000000	-0.066015
894.000000	-0.064747
892.000000	-0.063017
890.000000	-0.060739
888.000000	-0.057880
886.000000	-0.054456
884.000000	-0.050523
882.000000	-0.046108
880.000000	-0.041236
878.000000	-0.036025
876.000000	-0.030662
874.000000	-0.025382
872.000000	-0.020480
870.000000	-0.016296
868.000000	-0.013154
866.000000	-0.011303
864.000000	-0.010896
862.000000	-0.011979
860.000000	-0.014533
858.000000	-0.018509
856.000000	-0.023760
854.000000	-0.029969
852.000000	-0.036686
850.000000	-0.043457
848.000000	-0.049969
846.000000	-0.056097
844.000000	-0.061814
842.000000	-0.067036
840.000000	-0.071644
838.000000	-0.075565
836.000000	-0.078819
834.000000	-0.081540
832.000000	-0.083865
830.000000	-0.085873
828.000000	-0.087607
826.000000	-0.089103
824.000000	-0.090380
822.000000	-0.091450
820.000000	-0.092378
818.000000	-0.093270
816.000000	-0.094167
814.000000	-0.095076
812.000000	-0.096001
810.000000	-0.096905
808.000000	-0.097749
806.000000	-0.098576
804.000000	-0.099438
802.000000	-0.100310
800.000000	-0.101145
798.000000	-0.101933
796.000000	-0.102649
794.000000	-0.103267
792.000000	-0.103844
790.000000	-0.104438
788.000000	-0.105043
786.000000	-0.105622
784.000000	-0.106134
782.000000	-0.106532
780.000000	-0.106779
778.000000	-0.106888
776.000000	-0.106848
774.000000	-0.106602
772.000000	-0.106128
770.000000	-0.105457
768.000000	-0.104652
766.000000	-0.103778
764.000000	-0.102872
762.000000	-0.101964
760.000000	-0.101088
758.000000	-0.100296
756.000000	-0.099608
754.000000	-0.099018
752.000000	-0.098523
750.000000	-0.098101
748.000000	-0.097745
746.000000	-0.097488
744.000000	-0.097336
742.000000	-0.097219
740.000000	-0.097073
738.000000	-0.096864
736.000000	-0.096530
734.000000	-0.096131
732.000000	-0.095762
730.000000	-0.095368
728.000000	-0.094920
726.000000	-0.094602
724.000000	-0.094536
722.000000	-0.094658
720.000000	-0.095071
718.000000	-0.095789
716.000000	-0.096342
714.000000	-0.096328
712.000000	-0.095636
710.000000	-0.093962
708.000000	-0.091082
706.000000	-0.087147
704.000000	-0.082189
702.000000	-0.076042
700.000000	-0.068992
