PE IR       SUBTECH     SPECTRUM    ASCII       PEDS        4.00        
   -1
LC2_fl.asc
14/08/27
11:03:44.00
14/08/28
14:26:50.00
nystrom.12
Co-added spectrum 2 at 2261, -2622 (Image Marker 1)
700.000000
#HDR
-1
-1
#GR
cm-1
A
1.0
0.0
4000.000000
-2.000000
1651
8
0.120018
-0.003740
#DATA
4000.000000	0.002735
3998.000000	0.002258
3996.000000	0.001769
3994.000000	0.001305
3992.000000	0.000923
3990.000000	0.000665
3988.000000	0.000519
3986.000000	0.000421
3984.000000	0.000338
3982.000000	0.000289
3980.000000	0.000293
3978.000000	0.000324
3976.000000	0.000349
3974.000000	0.000331
3972.000000	0.000276
3970.000000	0.000243
3968.000000	0.000257
3966.000000	0.000284
3964.000000	0.000297
3962.000000	0.000287
3960.000000	0.000260
3958.000000	0.000233
3956.000000	0.000214
3954.000000	0.000164
3952.000000	0.000059
3950.000000	-0.000075
3948.000000	-0.000214
3946.000000	-0.000338
3944.000000	-0.000404
3942.000000	-0.000387
3940.000000	-0.000280
3938.000000	-0.000076
3936.000000	0.000208
3934.000000	0.000518
3932.000000	0.000850
3930.000000	0.001223
3928.000000	0.001586
3926.000000	0.001868
3924.000000	0.002024
3922.000000	0.002018
3920.000000	0.001848
3918.000000	0.001587
3916.000000	0.001326
3914.000000	0.001100
3912.000000	0.000944
3910.000000	0.000867
3908.000000	0.000847
3906.000000	0.000888
3904.000000	0.001011
3902.000000	0.001212
3900.000000	0.001415
3898.000000	0.001516
3896.000000	0.001458
3894.000000	0.001270
3892.000000	0.001025
3890.000000	0.000721
3888.000000	0.000316
3886.000000	-0.000086
3884.000000	-0.000360
3882.000000	-0.000555
3880.000000	-0.000726
3878.000000	-0.000873
3876.000000	-0.000964
3874.000000	-0.000904
3872.000000	-0.000628
3870.000000	-0.000269
3868.000000	-0.000006
3866.000000	0.000160
3864.000000	0.000510
3862.000000	0.000994
3860.000000	0.001395
3858.000000	0.001606
3856.000000	0.001615
3854.000000	0.001515
3852.000000	0.001520
3850.000000	0.001515
3848.000000	0.001332
3846.000000	0.000997
3844.000000	0.000702
3842.000000	0.000579
3840.000000	0.000596
3838.000000	0.000748
3836.000000	0.000937
3834.000000	0.001039
3832.000000	0.001128
3830.000000	0.001267
3828.000000	0.001395
3826.000000	0.001407
3824.000000	0.001269
3822.000000	0.001046
3820.000000	0.000806
3818.000000	0.000514
3816.000000	0.000290
3814.000000	0.000136
3812.000000	-0.000074
3810.000000	-0.000262
3808.000000	-0.000302
3806.000000	-0.000184
3804.000000	0.000016
3802.000000	0.000297
3800.000000	0.000606
3798.000000	0.000834
3796.000000	0.001092
3794.000000	0.001420
3792.000000	0.001717
3790.000000	0.001909
3788.000000	0.001980
3786.000000	0.001954
3784.000000	0.001878
3782.000000	0.001780
3780.000000	0.001670
3778.000000	0.001538
3776.000000	0.001297
3774.000000	0.000955
3772.000000	0.000604
3770.000000	0.000290
3768.000000	0.000004
3766.000000	-0.000272
3764.000000	-0.000557
3762.000000	-0.000887
3760.000000	-0.001165
3758.000000	-0.001269
3756.000000	-0.001269
3754.000000	-0.001286
3752.000000	-0.001327
3750.000000	-0.001294
3748.000000	-0.001070
3746.000000	-0.000630
3744.000000	-0.000065
3742.000000	0.000431
3740.000000	0.000795
3738.000000	0.001110
3736.000000	0.001468
3734.000000	0.001890
3732.000000	0.002164
3730.000000	0.002129
3728.000000	0.001869
3726.000000	0.001565
3724.000000	0.001340
3722.000000	0.001171
3720.000000	0.000992
3718.000000	0.000723
3716.000000	0.000404
3714.000000	0.000165
3712.000000	0.000069
3710.000000	0.000085
3708.000000	0.000080
3706.000000	-0.000018
3704.000000	-0.000126
3702.000000	-0.000102
3700.000000	0.000064
3698.000000	0.000268
3696.000000	0.000443
3694.000000	0.000541
3692.000000	0.000567
3690.000000	0.000635
3688.000000	0.000826
3686.000000	0.000960
3684.000000	0.000976
3682.000000	0.000958
3680.000000	0.000954
3678.000000	0.001011
3676.000000	0.001189
3674.000000	0.001469
3672.000000	0.001725
3670.000000	0.001971
3668.000000	0.002187
3666.000000	0.002263
3664.000000	0.002278
3662.000000	0.002363
3660.000000	0.002495
3658.000000	0.002606
3656.000000	0.002681
3654.000000	0.002713
3652.000000	0.002732
3650.000000	0.002867
3648.000000	0.003141
3646.000000	0.003257
3644.000000	0.003127
3642.000000	0.002849
3640.000000	0.002548
3638.000000	0.002278
3636.000000	0.002020
3634.000000	0.001738
3632.000000	0.001382
3630.000000	0.001003
3628.000000	0.000777
3626.000000	0.000780
3624.000000	0.000882
3622.000000	0.001032
3620.000000	0.001237
3618.000000	0.001496
3616.000000	0.001799
3614.000000	0.002143
3612.000000	0.002475
3610.000000	0.002686
3608.000000	0.002769
3606.000000	0.002701
3604.000000	0.002461
3602.000000	0.002103
3600.000000	0.001712
3598.000000	0.001351
3596.000000	0.001018
3594.000000	0.000717
3592.000000	0.000485
3590.000000	0.000345
3588.000000	0.000313
3586.000000	0.000376
3584.000000	0.000453
3582.000000	0.000447
3580.000000	0.000354
3578.000000	0.000205
3576.000000	0.000003
3574.000000	-0.000224
3572.000000	-0.000450
3570.000000	-0.000672
3568.000000	-0.000851
3566.000000	-0.000897
3564.000000	-0.000818
3562.000000	-0.000666
3560.000000	-0.000444
3558.000000	-0.000206
3556.000000	0.000004
3554.000000	0.000200
3552.000000	0.000397
3550.000000	0.000581
3548.000000	0.000723
3546.000000	0.000812
3544.000000	0.000821
3542.000000	0.000799
3540.000000	0.000817
3538.000000	0.000861
3536.000000	0.000883
3534.000000	0.000871
3532.000000	0.000850
3530.000000	0.000845
3528.000000	0.000890
3526.000000	0.000950
3524.000000	0.000944
3522.000000	0.000870
3520.000000	0.000749
3518.000000	0.000571
3516.000000	0.000327
3514.000000	0.000018
3512.000000	-0.000352
3510.000000	-0.000750
3508.000000	-0.001103
3506.000000	-0.001376
3504.000000	-0.001572
3502.000000	-0.001683
3500.000000	-0.001696
3498.000000	-0.001645
3496.000000	-0.001565
3494.000000	-0.001450
3492.000000	-0.001303
3490.000000	-0.001139
3488.000000	-0.000951
3486.000000	-0.000754
3484.000000	-0.000584
3482.000000	-0.000423
3480.000000	-0.000230
3478.000000	-0.000046
3476.000000	0.000066
3474.000000	0.000104
3472.000000	0.000087
3470.000000	0.000043
3468.000000	-0.000005
3466.000000	-0.000054
3464.000000	-0.000119
3462.000000	-0.000184
3460.000000	-0.000212
3458.000000	-0.000216
3456.000000	-0.000232
3454.000000	-0.000241
3452.000000	-0.000217
3450.000000	-0.000193
3448.000000	-0.000197
3446.000000	-0.000217
3444.000000	-0.000240
3442.000000	-0.000244
3440.000000	-0.000247
3438.000000	-0.000310
3436.000000	-0.000454
3434.000000	-0.000630
3432.000000	-0.000758
3430.000000	-0.000810
3428.000000	-0.000813
3426.000000	-0.000810
3424.000000	-0.000802
3422.000000	-0.000728
3420.000000	-0.000559
3418.000000	-0.000353
3416.000000	-0.000181
3414.000000	-0.000076
3412.000000	-0.000044
3410.000000	-0.000084
3408.000000	-0.000170
3406.000000	-0.000280
3404.000000	-0.000409
3402.000000	-0.000526
3400.000000	-0.000591
3398.000000	-0.000621
3396.000000	-0.000621
3394.000000	-0.000546
3392.000000	-0.000394
3390.000000	-0.000220
3388.000000	-0.000082
3386.000000	-0.000018
3384.000000	-0.000038
3382.000000	-0.000132
3380.000000	-0.000293
3378.000000	-0.000533
3376.000000	-0.000824
3374.000000	-0.001122
3372.000000	-0.001389
3370.000000	-0.001564
3368.000000	-0.001612
3366.000000	-0.001562
3364.000000	-0.001438
3362.000000	-0.001246
3360.000000	-0.001013
3358.000000	-0.000763
3356.000000	-0.000491
3354.000000	-0.000227
3352.000000	-0.000042
3350.000000	0.000068
3348.000000	0.000139
3346.000000	0.000163
3344.000000	0.000127
3342.000000	0.000047
3340.000000	-0.000084
3338.000000	-0.000276
3336.000000	-0.000492
3334.000000	-0.000702
3332.000000	-0.000908
3330.000000	-0.001096
3328.000000	-0.001229
3326.000000	-0.001296
3324.000000	-0.001298
3322.000000	-0.001227
3320.000000	-0.001081
3318.000000	-0.000877
3316.000000	-0.000612
3314.000000	-0.000299
3312.000000	0.000001
3310.000000	0.000241
3308.000000	0.000433
3306.000000	0.000597
3304.000000	0.000737
3302.000000	0.000820
3300.000000	0.000812
3298.000000	0.000727
3296.000000	0.000612
3294.000000	0.000511
3292.000000	0.000432
3290.000000	0.000354
3288.000000	0.000274
3286.000000	0.000231
3284.000000	0.000271
3282.000000	0.000383
3280.000000	0.000523
3278.000000	0.000678
3276.000000	0.000837
3274.000000	0.001014
3272.000000	0.001230
3270.000000	0.001433
3268.000000	0.001568
3266.000000	0.001660
3264.000000	0.001755
3262.000000	0.001848
3260.000000	0.001925
3258.000000	0.001990
3256.000000	0.002014
3254.000000	0.002000
3252.000000	0.001989
3250.000000	0.001966
3248.000000	0.001871
3246.000000	0.001711
3244.000000	0.001562
3242.000000	0.001468
3240.000000	0.001414
3238.000000	0.001381
3236.000000	0.001346
3234.000000	0.001314
3232.000000	0.001347
3230.000000	0.001481
3228.000000	0.001666
3226.000000	0.001830
3224.000000	0.001933
3222.000000	0.001963
3220.000000	0.001966
3218.000000	0.001981
3216.000000	0.001980
3214.000000	0.001934
3212.000000	0.001842
3210.000000	0.001707
3208.000000	0.001549
3206.000000	0.001430
3204.000000	0.001399
3202.000000	0.001451
3200.000000	0.001574
3198.000000	0.001731
3196.000000	0.001881
3194.000000	0.002051
3192.000000	0.002275
3190.000000	0.002514
3188.000000	0.002716
3186.000000	0.002839
3184.000000	0.002855
3182.000000	0.002808
3180.000000	0.002772
3178.000000	0.002759
3176.000000	0.002757
3174.000000	0.002769
3172.000000	0.002807
3170.000000	0.002879
3168.000000	0.002981
3166.000000	0.003093
3164.000000	0.003207
3162.000000	0.003312
3160.000000	0.003383
3158.000000	0.003419
3156.000000	0.003432
3154.000000	0.003394
3152.000000	0.003299
3150.000000	0.003201
3148.000000	0.003129
3146.000000	0.003075
3144.000000	0.003023
3142.000000	0.002952
3140.000000	0.002852
3138.000000	0.002771
3136.000000	0.002755
3134.000000	0.002782
3132.000000	0.002810
3130.000000	0.002829
3128.000000	0.002855
3126.000000	0.002921
3124.000000	0.003042
3122.000000	0.003179
3120.000000	0.003284
3118.000000	0.003372
3116.000000	0.003473
3114.000000	0.003566
3112.000000	0.003607
3110.000000	0.003596
3108.000000	0.003573
3106.000000	0.003575
3104.000000	0.003600
3102.000000	0.003619
3100.000000	0.003607
3098.000000	0.003565
3096.000000	0.003541
3094.000000	0.003568
3092.000000	0.003602
3090.000000	0.003592
3088.000000	0.003561
3086.000000	0.003569
3084.000000	0.003632
3082.000000	0.003732
3080.000000	0.003845
3078.000000	0.003950
3076.000000	0.004058
3074.000000	0.004208
3072.000000	0.004400
3070.000000	0.004575
3068.000000	0.004692
3066.000000	0.004788
3064.000000	0.004887
3062.000000	0.004978
3060.000000	0.005070
3058.000000	0.005153
3056.000000	0.005201
3054.000000	0.005231
3052.000000	0.005276
3050.000000	0.005332
3048.000000	0.005386
3046.000000	0.005442
3044.000000	0.005493
3042.000000	0.005530
3040.000000	0.005562
3038.000000	0.005598
3036.000000	0.005641
3034.000000	0.005702
3032.000000	0.005777
3030.000000	0.005849
3028.000000	0.005925
3026.000000	0.006025
3024.000000	0.006147
3022.000000	0.006263
3020.000000	0.006351
3018.000000	0.006402
3016.000000	0.006424
3014.000000	0.006439
3012.000000	0.006450
3010.000000	0.006439
3008.000000	0.006403
3006.000000	0.006375
3004.000000	0.006369
3002.000000	0.006376
3000.000000	0.006395
2998.000000	0.006420
2996.000000	0.006435
2994.000000	0.006469
2992.000000	0.006555
2990.000000	0.006685
2988.000000	0.006843
2986.000000	0.007012
2984.000000	0.007185
2982.000000	0.007367
2980.000000	0.007528
2978.000000	0.007611
2976.000000	0.007586
2974.000000	0.007483
2972.000000	0.007343
2970.000000	0.007196
2968.000000	0.007041
2966.000000	0.006867
2964.000000	0.006706
2962.000000	0.006631
2960.000000	0.006671
2958.000000	0.006750
2956.000000	0.006810
2954.000000	0.006837
2952.000000	0.006837
2950.000000	0.006819
2948.000000	0.006793
2946.000000	0.006743
2944.000000	0.006646
2942.000000	0.006524
2940.000000	0.006411
2938.000000	0.006330
2936.000000	0.006308
2934.000000	0.006349
2932.000000	0.006415
2930.000000	0.006489
2928.000000	0.006584
2926.000000	0.006693
2924.000000	0.006801
2922.000000	0.006886
2920.000000	0.006903
2918.000000	0.006835
2916.000000	0.006702
2914.000000	0.006524
2912.000000	0.006319
2910.000000	0.006122
2908.000000	0.005963
2906.000000	0.005841
2904.000000	0.005764
2902.000000	0.005745
2900.000000	0.005766
2898.000000	0.005816
2896.000000	0.005890
2894.000000	0.005975
2892.000000	0.006049
2890.000000	0.006098
2888.000000	0.006136
2886.000000	0.006190
2884.000000	0.006273
2882.000000	0.006381
2880.000000	0.006480
2878.000000	0.006555
2876.000000	0.006633
2874.000000	0.006729
2872.000000	0.006802
2870.000000	0.006806
2868.000000	0.006773
2866.000000	0.006750
2864.000000	0.006756
2862.000000	0.006780
2860.000000	0.006790
2858.000000	0.006770
2856.000000	0.006779
2854.000000	0.006889
2852.000000	0.007052
2850.000000	0.007178
2848.000000	0.007257
2846.000000	0.007330
2844.000000	0.007434
2842.000000	0.007583
2840.000000	0.007732
2838.000000	0.007806
2836.000000	0.007808
2834.000000	0.007799
2832.000000	0.007803
2830.000000	0.007785
2828.000000	0.007714
2826.000000	0.007595
2824.000000	0.007444
2822.000000	0.007283
2820.000000	0.007149
2818.000000	0.007034
2816.000000	0.006901
2814.000000	0.006757
2812.000000	0.006633
2810.000000	0.006534
2808.000000	0.006436
2806.000000	0.006331
2804.000000	0.006229
2802.000000	0.006140
2800.000000	0.006089
2798.000000	0.006103
2796.000000	0.006177
2794.000000	0.006273
2792.000000	0.006384
2790.000000	0.006539
2788.000000	0.006750
2786.000000	0.006994
2784.000000	0.007225
2782.000000	0.007420
2780.000000	0.007581
2778.000000	0.007700
2776.000000	0.007773
2774.000000	0.007813
2772.000000	0.007824
2770.000000	0.007788
2768.000000	0.007720
2766.000000	0.007665
2764.000000	0.007638
2762.000000	0.007634
2760.000000	0.007667
2758.000000	0.007721
2756.000000	0.007740
2754.000000	0.007723
2752.000000	0.007719
2750.000000	0.007723
2748.000000	0.007699
2746.000000	0.007641
2744.000000	0.007574
2742.000000	0.007511
2740.000000	0.007467
2738.000000	0.007456
2736.000000	0.007453
2734.000000	0.007431
2732.000000	0.007397
2730.000000	0.007360
2728.000000	0.007317
2726.000000	0.007280
2724.000000	0.007265
2722.000000	0.007260
2720.000000	0.007245
2718.000000	0.007215
2716.000000	0.007199
2714.000000	0.007229
2712.000000	0.007292
2710.000000	0.007339
2708.000000	0.007335
2706.000000	0.007299
2704.000000	0.007281
2702.000000	0.007305
2700.000000	0.007343
2698.000000	0.007332
2696.000000	0.007254
2694.000000	0.007141
2692.000000	0.007044
2690.000000	0.006976
2688.000000	0.006910
2686.000000	0.006818
2684.000000	0.006697
2682.000000	0.006582
2680.000000	0.006506
2678.000000	0.006464
2676.000000	0.006427
2674.000000	0.006374
2672.000000	0.006308
2670.000000	0.006227
2668.000000	0.006131
2666.000000	0.006043
2664.000000	0.005968
2662.000000	0.005883
2660.000000	0.005787
2658.000000	0.005709
2656.000000	0.005657
2654.000000	0.005643
2652.000000	0.005697
2650.000000	0.005818
2648.000000	0.005989
2646.000000	0.006213
2644.000000	0.006486
2642.000000	0.006778
2640.000000	0.007050
2638.000000	0.007270
2636.000000	0.007418
2634.000000	0.007494
2632.000000	0.007492
2630.000000	0.007411
2628.000000	0.007271
2626.000000	0.007091
2624.000000	0.006904
2622.000000	0.006741
2620.000000	0.006598
2618.000000	0.006486
2616.000000	0.006425
2614.000000	0.006398
2612.000000	0.006401
2610.000000	0.006451
2608.000000	0.006539
2606.000000	0.006628
2604.000000	0.006693
2602.000000	0.006715
2600.000000	0.006677
2598.000000	0.006612
2596.000000	0.006563
2594.000000	0.006525
2592.000000	0.006478
2590.000000	0.006423
2588.000000	0.006387
2586.000000	0.006409
2584.000000	0.006515
2582.000000	0.006689
2580.000000	0.006873
2578.000000	0.007024
2576.000000	0.007158
2574.000000	0.007307
2572.000000	0.007480
2570.000000	0.007648
2568.000000	0.007781
2566.000000	0.007871
2564.000000	0.007933
2562.000000	0.007980
2560.000000	0.008010
2558.000000	0.008009
2556.000000	0.007989
2554.000000	0.007993
2552.000000	0.008024
2550.000000	0.008053
2548.000000	0.008087
2546.000000	0.008124
2544.000000	0.008140
2542.000000	0.008149
2540.000000	0.008186
2538.000000	0.008219
2536.000000	0.008200
2534.000000	0.008139
2532.000000	0.008053
2530.000000	0.007963
2528.000000	0.007909
2526.000000	0.007912
2524.000000	0.007947
2522.000000	0.007976
2520.000000	0.008005
2518.000000	0.008069
2516.000000	0.008204
2514.000000	0.008420
2512.000000	0.008677
2510.000000	0.008911
2508.000000	0.009108
2506.000000	0.009289
2504.000000	0.009461
2502.000000	0.009613
2500.000000	0.009706
2498.000000	0.009686
2496.000000	0.009554
2494.000000	0.009363
2492.000000	0.009125
2490.000000	0.008815
2488.000000	0.008451
2486.000000	0.008074
2484.000000	0.007701
2482.000000	0.007358
2480.000000	0.007067
2478.000000	0.006803
2476.000000	0.006553
2474.000000	0.006352
2472.000000	0.006220
2470.000000	0.006136
2468.000000	0.006075
2466.000000	0.006023
2464.000000	0.005969
2462.000000	0.005920
2460.000000	0.005884
2458.000000	0.005850
2456.000000	0.005800
2454.000000	0.005714
2452.000000	0.005584
2450.000000	0.005433
2448.000000	0.005285
2446.000000	0.005139
2444.000000	0.004996
2442.000000	0.004852
2440.000000	0.004703
2438.000000	0.004579
2436.000000	0.004519
2434.000000	0.004521
2432.000000	0.004560
2430.000000	0.004616
2428.000000	0.004672
2426.000000	0.004717
2424.000000	0.004744
2422.000000	0.004755
2420.000000	0.004730
2418.000000	0.004647
2416.000000	0.004510
2414.000000	0.004338
2412.000000	0.004160
2410.000000	0.003998
2408.000000	0.003853
2406.000000	0.003735
2404.000000	0.003660
2402.000000	0.003620
2400.000000	0.003586
2398.000000	0.003537
2396.000000	0.003467
2394.000000	0.003386
2392.000000	0.003337
2390.000000	0.003333
2388.000000	0.003336
2386.000000	0.003323
2384.000000	0.003295
2382.000000	0.003180
2380.000000	0.002862
2378.000000	0.002321
2376.000000	0.001585
2374.000000	0.000670
2372.000000	-0.000369
2370.000000	-0.001464
2368.000000	-0.002537
2366.000000	-0.003392
2364.000000	-0.003740
2362.000000	-0.003443
2360.000000	-0.002646
2358.000000	-0.001502
2356.000000	-0.000109
2354.000000	0.001462
2352.000000	0.002989
2350.000000	0.004337
2348.000000	0.005361
2346.000000	0.005910
2344.000000	0.005943
2342.000000	0.005555
2340.000000	0.004888
2338.000000	0.004079
2336.000000	0.003288
2334.000000	0.002546
2332.000000	0.001815
2330.000000	0.001177
2328.000000	0.000752
2326.000000	0.000567
2324.000000	0.000571
2322.000000	0.000677
2320.000000	0.000797
2318.000000	0.000947
2316.000000	0.001181
2314.000000	0.001486
2312.000000	0.001792
2310.000000	0.002023
2308.000000	0.002162
2306.000000	0.002231
2304.000000	0.002259
2302.000000	0.002255
2300.000000	0.002205
2298.000000	0.002097
2296.000000	0.001940
2294.000000	0.001763
2292.000000	0.001585
2290.000000	0.001422
2288.000000	0.001298
2286.000000	0.001222
2284.000000	0.001181
2282.000000	0.001175
2280.000000	0.001210
2278.000000	0.001277
2276.000000	0.001368
2274.000000	0.001474
2272.000000	0.001573
2270.000000	0.001653
2268.000000	0.001712
2266.000000	0.001727
2264.000000	0.001705
2262.000000	0.001684
2260.000000	0.001674
2258.000000	0.001666
2256.000000	0.001656
2254.000000	0.001636
2252.000000	0.001600
2250.000000	0.001556
2248.000000	0.001522
2246.000000	0.001485
2244.000000	0.001422
2242.000000	0.001341
2240.000000	0.001248
2238.000000	0.001138
2236.000000	0.001029
2234.000000	0.000937
2232.000000	0.000862
2230.000000	0.000804
2228.000000	0.000764
2226.000000	0.000733
2224.000000	0.000685
2222.000000	0.000632
2220.000000	0.000603
2218.000000	0.000599
2216.000000	0.000609
2214.000000	0.000641
2212.000000	0.000691
2210.000000	0.000748
2208.000000	0.000834
2206.000000	0.000964
2204.000000	0.001111
2202.000000	0.001251
2200.000000	0.001375
2198.000000	0.001464
2196.000000	0.001516
2194.000000	0.001543
2192.000000	0.001535
2190.000000	0.001473
2188.000000	0.001366
2186.000000	0.001227
2184.000000	0.001047
2182.000000	0.000839
2180.000000	0.000636
2178.000000	0.000438
2176.000000	0.000239
2174.000000	0.000052
2172.000000	-0.000118
2170.000000	-0.000275
2168.000000	-0.000412
2166.000000	-0.000516
2164.000000	-0.000588
2162.000000	-0.000641
2160.000000	-0.000672
2158.000000	-0.000670
2156.000000	-0.000637
2154.000000	-0.000572
2152.000000	-0.000470
2150.000000	-0.000343
2148.000000	-0.000214
2146.000000	-0.000102
2144.000000	0.000005
2142.000000	0.000120
2140.000000	0.000230
2138.000000	0.000326
2136.000000	0.000407
2134.000000	0.000471
2132.000000	0.000537
2130.000000	0.000636
2128.000000	0.000775
2126.000000	0.000936
2124.000000	0.001103
2122.000000	0.001261
2120.000000	0.001403
2118.000000	0.001534
2116.000000	0.001657
2114.000000	0.001756
2112.000000	0.001797
2110.000000	0.001779
2108.000000	0.001733
2106.000000	0.001691
2104.000000	0.001683
2102.000000	0.001705
2100.000000	0.001722
2098.000000	0.001720
2096.000000	0.001731
2094.000000	0.001778
2092.000000	0.001839
2090.000000	0.001893
2088.000000	0.001922
2086.000000	0.001912
2084.000000	0.001892
2082.000000	0.001892
2080.000000	0.001886
2078.000000	0.001851
2076.000000	0.001814
2074.000000	0.001806
2072.000000	0.001824
2070.000000	0.001865
2068.000000	0.001927
2066.000000	0.002011
2064.000000	0.002134
2062.000000	0.002296
2060.000000	0.002466
2058.000000	0.002613
2056.000000	0.002744
2054.000000	0.002883
2052.000000	0.003042
2050.000000	0.003199
2048.000000	0.003340
2046.000000	0.003461
2044.000000	0.003564
2042.000000	0.003660
2040.000000	0.003758
2038.000000	0.003854
2036.000000	0.003949
2034.000000	0.004048
2032.000000	0.004146
2030.000000	0.004241
2028.000000	0.004352
2026.000000	0.004499
2024.000000	0.004669
2022.000000	0.004847
2020.000000	0.005030
2018.000000	0.005211
2016.000000	0.005392
2014.000000	0.005576
2012.000000	0.005762
2010.000000	0.005943
2008.000000	0.006122
2006.000000	0.006311
2004.000000	0.006500
2002.000000	0.006675
2000.000000	0.006833
1998.000000	0.006970
1996.000000	0.007079
1994.000000	0.007159
1992.000000	0.007217
1990.000000	0.007256
1988.000000	0.007274
1986.000000	0.007297
1984.000000	0.007358
1982.000000	0.007461
1980.000000	0.007606
1978.000000	0.007794
1976.000000	0.008012
1974.000000	0.008237
1972.000000	0.008456
1970.000000	0.008668
1968.000000	0.008858
1966.000000	0.008998
1964.000000	0.009078
1962.000000	0.009105
1960.000000	0.009092
1958.000000	0.009045
1956.000000	0.008974
1954.000000	0.008896
1952.000000	0.008809
1950.000000	0.008720
1948.000000	0.008652
1946.000000	0.008618
1944.000000	0.008609
1942.000000	0.008626
1940.000000	0.008678
1938.000000	0.008763
1936.000000	0.008875
1934.000000	0.009017
1932.000000	0.009182
1930.000000	0.009350
1928.000000	0.009515
1926.000000	0.009687
1924.000000	0.009866
1922.000000	0.010029
1920.000000	0.010150
1918.000000	0.010223
1916.000000	0.010261
1914.000000	0.010281
1912.000000	0.010302
1910.000000	0.010318
1908.000000	0.010302
1906.000000	0.010255
1904.000000	0.010205
1902.000000	0.010165
1900.000000	0.010143
1898.000000	0.010131
1896.000000	0.010119
1894.000000	0.010115
1892.000000	0.010128
1890.000000	0.010164
1888.000000	0.010234
1886.000000	0.010329
1884.000000	0.010424
1882.000000	0.010510
1880.000000	0.010577
1878.000000	0.010621
1876.000000	0.010677
1874.000000	0.010779
1872.000000	0.010922
1870.000000	0.011085
1868.000000	0.011248
1866.000000	0.011439
1864.000000	0.011700
1862.000000	0.012020
1860.000000	0.012336
1858.000000	0.012608
1856.000000	0.012845
1854.000000	0.013069
1852.000000	0.013292
1850.000000	0.013514
1848.000000	0.013717
1846.000000	0.013888
1844.000000	0.014051
1842.000000	0.014241
1840.000000	0.014437
1838.000000	0.014606
1836.000000	0.014749
1834.000000	0.014878
1832.000000	0.014984
1830.000000	0.015063
1828.000000	0.015125
1826.000000	0.015160
1824.000000	0.015172
1822.000000	0.015193
1820.000000	0.015237
1818.000000	0.015297
1816.000000	0.015370
1814.000000	0.015466
1812.000000	0.015581
1810.000000	0.015710
1808.000000	0.015832
1806.000000	0.015913
1804.000000	0.015939
1802.000000	0.015918
1800.000000	0.015852
1798.000000	0.015735
1796.000000	0.015569
1794.000000	0.015364
1792.000000	0.015150
1790.000000	0.014963
1788.000000	0.014804
1786.000000	0.014663
1784.000000	0.014551
1782.000000	0.014490
1780.000000	0.014490
1778.000000	0.014534
1776.000000	0.014598
1774.000000	0.014685
1772.000000	0.014815
1770.000000	0.015007
1768.000000	0.015236
1766.000000	0.015454
1764.000000	0.015626
1762.000000	0.015761
1760.000000	0.015897
1758.000000	0.016047
1756.000000	0.016191
1754.000000	0.016297
1752.000000	0.016361
1750.000000	0.016410
1748.000000	0.016486
1746.000000	0.016593
1744.000000	0.016705
1742.000000	0.016808
1740.000000	0.016897
1738.000000	0.016983
1736.000000	0.017091
1734.000000	0.017201
1732.000000	0.017273
1730.000000	0.017326
1728.000000	0.017393
1726.000000	0.017473
1724.000000	0.017544
1722.000000	0.017587
1720.000000	0.017578
1718.000000	0.017508
1716.000000	0.017439
1714.000000	0.017413
1712.000000	0.017372
1710.000000	0.017318
1708.000000	0.017276
1706.000000	0.017265
1704.000000	0.017318
1702.000000	0.017462
1700.000000	0.017673
1698.000000	0.017929
1696.000000	0.018253
1694.000000	0.018625
1692.000000	0.018983
1690.000000	0.019319
1688.000000	0.019650
1686.000000	0.019983
1684.000000	0.020327
1682.000000	0.020686
1680.000000	0.021044
1678.000000	0.021387
1676.000000	0.021730
1674.000000	0.022088
1672.000000	0.022426
1670.000000	0.022717
1668.000000	0.022983
1666.000000	0.023221
1664.000000	0.023399
1662.000000	0.023539
1660.000000	0.023697
1658.000000	0.023876
1656.000000	0.024074
1654.000000	0.024316
1652.000000	0.024575
1650.000000	0.024778
1648.000000	0.025007
1646.000000	0.025338
1644.000000	0.025737
1642.000000	0.026157
1640.000000	0.026602
1638.000000	0.027069
1636.000000	0.027577
1634.000000	0.028181
1632.000000	0.028821
1630.000000	0.029433
1628.000000	0.029999
1626.000000	0.030544
1624.000000	0.031109
1622.000000	0.031733
1620.000000	0.032417
1618.000000	0.033160
1616.000000	0.033984
1614.000000	0.034933
1612.000000	0.036044
1610.000000	0.037318
1608.000000	0.038730
1606.000000	0.040272
1604.000000	0.041963
1602.000000	0.043817
1600.000000	0.045828
1598.000000	0.047980
1596.000000	0.050247
1594.000000	0.052615
1592.000000	0.055080
1590.000000	0.057621
1588.000000	0.060182
1586.000000	0.062689
1584.000000	0.065109
1582.000000	0.067454
1580.000000	0.069712
1578.000000	0.071858
1576.000000	0.073882
1574.000000	0.075766
1572.000000	0.077501
1570.000000	0.079123
1568.000000	0.080660
1566.000000	0.082057
1564.000000	0.083279
1562.000000	0.084327
1560.000000	0.085165
1558.000000	0.085746
1556.000000	0.086084
1554.000000	0.086225
1552.000000	0.086219
1550.000000	0.086112
1548.000000	0.085945
1546.000000	0.085752
1544.000000	0.085598
1542.000000	0.085613
1540.000000	0.085900
1538.000000	0.086373
1536.000000	0.086905
1534.000000	0.087471
1532.000000	0.088097
1530.000000	0.088784
1528.000000	0.089501
1526.000000	0.090190
1524.000000	0.090773
1522.000000	0.091249
1520.000000	0.091707
1518.000000	0.092185
1516.000000	0.092676
1514.000000	0.093165
1512.000000	0.093649
1510.000000	0.094149
1508.000000	0.094721
1506.000000	0.095390
1504.000000	0.096140
1502.000000	0.096984
1500.000000	0.097937
1498.000000	0.098963
1496.000000	0.100033
1494.000000	0.101152
1492.000000	0.102272
1490.000000	0.103347
1488.000000	0.104378
1486.000000	0.105359
1484.000000	0.106249
1482.000000	0.107046
1480.000000	0.107782
1478.000000	0.108470
1476.000000	0.109121
1474.000000	0.109745
1472.000000	0.110341
1470.000000	0.110905
1468.000000	0.111419
1466.000000	0.111872
1464.000000	0.112250
1462.000000	0.112539
1460.000000	0.112731
1458.000000	0.112822
1456.000000	0.112856
1454.000000	0.112897
1452.000000	0.112930
1450.000000	0.112955
1448.000000	0.112999
1446.000000	0.113098
1444.000000	0.113280
1442.000000	0.113549
1440.000000	0.113884
1438.000000	0.114245
1436.000000	0.114642
1434.000000	0.115100
1432.000000	0.115600
1430.000000	0.116123
1428.000000	0.116648
1426.000000	0.117154
1424.000000	0.117640
1422.000000	0.118112
1420.000000	0.118569
1418.000000	0.119004
1416.000000	0.119406
1414.000000	0.119734
1412.000000	0.119943
1410.000000	0.120018
1408.000000	0.119960
1406.000000	0.119770
1404.000000	0.119454
1402.000000	0.119015
1400.000000	0.118455
1398.000000	0.117802
1396.000000	0.117090
1394.000000	0.116337
1392.000000	0.115542
1390.000000	0.114656
1388.000000	0.113621
1386.000000	0.112416
1384.000000	0.111045
1382.000000	0.109516
1380.000000	0.107866
1378.000000	0.106153
1376.000000	0.104422
1374.000000	0.102739
1372.000000	0.101198
1370.000000	0.099841
1368.000000	0.098665
1366.000000	0.097664
1364.000000	0.096807
1362.000000	0.096046
1360.000000	0.095357
1358.000000	0.094703
1356.000000	0.094019
1354.000000	0.093267
1352.000000	0.092461
1350.000000	0.091619
1348.000000	0.090750
1346.000000	0.089862
1344.000000	0.088972
1342.000000	0.088091
1340.000000	0.087245
1338.000000	0.086465
1336.000000	0.085744
1334.000000	0.085054
1332.000000	0.084394
1330.000000	0.083773
1328.000000	0.083196
1326.000000	0.082664
1324.000000	0.082186
1322.000000	0.081771
1320.000000	0.081442
1318.000000	0.081228
1316.000000	0.081129
1314.000000	0.081137
1312.000000	0.081257
1310.000000	0.081490
1308.000000	0.081815
1306.000000	0.082191
1304.000000	0.082574
1302.000000	0.082931
1300.000000	0.083249
1298.000000	0.083516
1296.000000	0.083709
1294.000000	0.083809
1292.000000	0.083821
1290.000000	0.083766
1288.000000	0.083658
1286.000000	0.083501
1284.000000	0.083296
1282.000000	0.083056
1280.000000	0.082799
1278.000000	0.082529
1276.000000	0.082237
1274.000000	0.081925
1272.000000	0.081602
1270.000000	0.081283
1268.000000	0.080983
1266.000000	0.080705
1264.000000	0.080429
1262.000000	0.080140
1260.000000	0.079842
1258.000000	0.079535
1256.000000	0.079207
1254.000000	0.078851
1252.000000	0.078470
1250.000000	0.078072
1248.000000	0.077678
1246.000000	0.077306
1244.000000	0.076962
1242.000000	0.076644
1240.000000	0.076359
1238.000000	0.076103
1236.000000	0.075851
1234.000000	0.075579
1232.000000	0.075278
1230.000000	0.074952
1228.000000	0.074605
1226.000000	0.074249
1224.000000	0.073896
1222.000000	0.073563
1220.000000	0.073270
1218.000000	0.073034
1216.000000	0.072855
1214.000000	0.072735
1212.000000	0.072660
1210.000000	0.072602
1208.000000	0.072545
1206.000000	0.072480
1204.000000	0.072392
1202.000000	0.072263
1200.000000	0.072094
1198.000000	0.071886
1196.000000	0.071636
1194.000000	0.071364
1192.000000	0.071095
1190.000000	0.070833
1188.000000	0.070583
1186.000000	0.070362
1184.000000	0.070180
1182.000000	0.070043
1180.000000	0.069961
1178.000000	0.069932
1176.000000	0.069948
1174.000000	0.070014
1172.000000	0.070126
1170.000000	0.070273
1168.000000	0.070464
1166.000000	0.070695
1164.000000	0.070947
1162.000000	0.071211
1160.000000	0.071472
1158.000000	0.071719
1156.000000	0.071981
1154.000000	0.072283
1152.000000	0.072610
1150.000000	0.072953
1148.000000	0.073324
1146.000000	0.073729
1144.000000	0.074187
1142.000000	0.074718
1140.000000	0.075288
1138.000000	0.075846
1136.000000	0.076385
1134.000000	0.076905
1132.000000	0.077404
1130.000000	0.077896
1128.000000	0.078374
1126.000000	0.078802
1124.000000	0.079187
1122.000000	0.079564
1120.000000	0.079959
1118.000000	0.080383
1116.000000	0.080819
1114.000000	0.081227
1112.000000	0.081597
1110.000000	0.081962
1108.000000	0.082335
1106.000000	0.082712
1104.000000	0.083100
1102.000000	0.083509
1100.000000	0.083944
1098.000000	0.084409
1096.000000	0.084895
1094.000000	0.085373
1092.000000	0.085810
1090.000000	0.086177
1088.000000	0.086434
1086.000000	0.086525
1084.000000	0.086423
1082.000000	0.086171
1080.000000	0.085829
1078.000000	0.085427
1076.000000	0.084971
1074.000000	0.084480
1072.000000	0.083994
1070.000000	0.083554
1068.000000	0.083179
1066.000000	0.082853
1064.000000	0.082520
1062.000000	0.082143
1060.000000	0.081738
1058.000000	0.081325
1056.000000	0.080889
1054.000000	0.080408
1052.000000	0.079874
1050.000000	0.079287
1048.000000	0.078649
1046.000000	0.077978
1044.000000	0.077286
1042.000000	0.076555
1040.000000	0.075774
1038.000000	0.074949
1036.000000	0.074100
1034.000000	0.073241
1032.000000	0.072389
1030.000000	0.071562
1028.000000	0.070750
1026.000000	0.069941
1024.000000	0.069133
1022.000000	0.068334
1020.000000	0.067526
1018.000000	0.066684
1016.000000	0.065798
1014.000000	0.064864
1012.000000	0.063891
1010.000000	0.062907
1008.000000	0.061935
1006.000000	0.060967
1004.000000	0.060002
1002.000000	0.059062
1000.000000	0.058154
998.000000	0.057259
996.000000	0.056370
994.000000	0.055484
992.000000	0.054589
990.000000	0.053677
988.000000	0.052746
986.000000	0.051793
984.000000	0.050830
982.000000	0.049880
980.000000	0.048951
978.000000	0.048034
976.000000	0.047121
974.000000	0.046209
972.000000	0.045318
970.000000	0.044479
968.000000	0.043698
966.000000	0.042932
964.000000	0.042146
962.000000	0.041349
960.000000	0.040574
958.000000	0.039855
956.000000	0.039175
954.000000	0.038478
952.000000	0.037746
950.000000	0.037020
948.000000	0.036341
946.000000	0.035718
944.000000	0.035131
942.000000	0.034546
940.000000	0.033947
938.000000	0.033372
936.000000	0.032855
934.000000	0.032370
932.000000	0.031878
930.000000	0.031361
928.000000	0.030823
926.000000	0.030286
924.000000	0.029781
922.000000	0.029316
920.000000	0.028874
918.000000	0.028450
916.000000	0.028071
914.000000	0.027777
912.000000	0.027596
910.000000	0.027513
908.000000	0.027498
906.000000	0.027556
904.000000	0.027738
902.000000	0.028117
900.000000	0.028729
898.000000	0.029571
896.000000	0.030666
894.000000	0.032103
892.000000	0.034002
890.000000	0.036449
888.000000	0.039477
886.000000	0.043071
884.000000	0.047173
882.000000	0.051757
880.000000	0.056798
878.000000	0.062179
876.000000	0.067712
874.000000	0.073162
872.000000	0.078234
870.000000	0.082588
868.000000	0.085900
866.000000	0.087921
864.000000	0.088498
862.000000	0.087585
860.000000	0.085202
858.000000	0.081395
856.000000	0.076315
854.000000	0.070277
852.000000	0.063731
850.000000	0.057130
848.000000	0.050789
846.000000	0.044832
844.000000	0.039286
842.000000	0.034234
840.000000	0.029798
838.000000	0.026048
836.000000	0.022965
834.000000	0.020416
832.000000	0.018262
830.000000	0.016425
828.000000	0.014863
826.000000	0.013539
824.000000	0.012433
822.000000	0.011535
820.000000	0.010779
818.000000	0.010059
816.000000	0.009333
814.000000	0.008597
812.000000	0.007844
810.000000	0.007113
808.000000	0.006440
806.000000	0.005786
804.000000	0.005096
802.000000	0.004397
800.000000	0.003735
798.000000	0.003119
796.000000	0.002576
794.000000	0.002131
792.000000	0.001727
790.000000	0.001306
788.000000	0.000874
786.000000	0.000468
784.000000	0.000129
782.000000	-0.000096
780.000000	-0.000170
778.000000	0.000007
776.000000	0.000220
774.000000	0.000640
772.000000	0.001288
770.000000	0.002132
768.000000	0.003110
766.000000	0.004158
764.000000	0.005237
762.000000	0.006319
760.000000	0.007368
758.000000	0.008334
756.000000	0.009194
754.000000	0.009959
752.000000	0.010627
750.000000	0.011222
748.000000	0.011751
746.000000	0.012182
744.000000	0.012507
742.000000	0.012798
740.000000	0.013117
738.000000	0.013500
736.000000	0.014007
734.000000	0.014579
732.000000	0.015122
730.000000	0.015690
728.000000	0.016311
726.000000	0.016802
724.000000	0.017042
722.000000	0.017093
720.000000	0.016853
718.000000	0.016309
716.000000	0.015929
714.000000	0.016117
712.000000	0.016983
710.000000	0.018830
708.000000	0.021883
706.000000	0.025991
704.000000	0.031123
702.000000	0.037444
700.000000	0.044667
