PE IR       SUBTECH     SPECTRUM    ASCII       PEDS        4.00        
   -1
LC4_fl.asc
14/08/27
11:03:44.00
14/08/28
14:29:13.00
nystrom.12
Co-added spectrum 2 at 2254, -2572 (Image Marker 1)
700.000000
#HDR
-1
-1
#GR
cm-1
A
1.0
0.0
4000.000000
-2.000000
1651
8
0.092264
-0.002444
#DATA
4000.000000	-0.001253
3998.000000	-0.001196
3996.000000	-0.001128
3994.000000	-0.001026
3992.000000	-0.000903
3990.000000	-0.000768
3988.000000	-0.000639
3986.000000	-0.000563
3984.000000	-0.000580
3982.000000	-0.000696
3980.000000	-0.000886
3978.000000	-0.001103
3976.000000	-0.001301
3974.000000	-0.001480
3972.000000	-0.001652
3970.000000	-0.001774
3968.000000	-0.001787
3966.000000	-0.001665
3964.000000	-0.001418
3962.000000	-0.001120
3960.000000	-0.000862
3958.000000	-0.000661
3956.000000	-0.000503
3954.000000	-0.000400
3952.000000	-0.000349
3950.000000	-0.000354
3948.000000	-0.000462
3946.000000	-0.000658
3944.000000	-0.000848
3942.000000	-0.000989
3940.000000	-0.001080
3938.000000	-0.001114
3936.000000	-0.001082
3934.000000	-0.000977
3932.000000	-0.000789
3930.000000	-0.000514
3928.000000	-0.000226
3926.000000	-0.000001
3924.000000	0.000103
3922.000000	0.000230
3920.000000	0.000370
3918.000000	0.000513
3916.000000	0.000587
3914.000000	0.000557
3912.000000	0.000476
3910.000000	0.000411
3908.000000	0.000411
3906.000000	0.000486
3904.000000	0.000577
3902.000000	0.000589
3900.000000	0.000606
3898.000000	0.000764
3896.000000	0.001054
3894.000000	0.001407
3892.000000	0.001747
3890.000000	0.002028
3888.000000	0.002253
3886.000000	0.002432
3884.000000	0.002565
3882.000000	0.002654
3880.000000	0.002669
3878.000000	0.002570
3876.000000	0.002404
3874.000000	0.002233
3872.000000	0.002067
3870.000000	0.001958
3868.000000	0.002010
3866.000000	0.002179
3864.000000	0.002381
3862.000000	0.002625
3860.000000	0.002929
3858.000000	0.003309
3856.000000	0.003748
3854.000000	0.004193
3852.000000	0.004560
3850.000000	0.004705
3848.000000	0.004674
3846.000000	0.004579
3844.000000	0.004486
3842.000000	0.004404
3840.000000	0.004331
3838.000000	0.004267
3836.000000	0.004200
3834.000000	0.004201
3832.000000	0.004323
3830.000000	0.004528
3828.000000	0.004726
3826.000000	0.004812
3824.000000	0.004725
3822.000000	0.004500
3820.000000	0.004256
3818.000000	0.004040
3816.000000	0.003817
3814.000000	0.003548
3812.000000	0.003213
3810.000000	0.002889
3808.000000	0.002655
3806.000000	0.002542
3804.000000	0.002483
3802.000000	0.002393
3800.000000	0.002285
3798.000000	0.002211
3796.000000	0.002191
3794.000000	0.002217
3792.000000	0.002259
3790.000000	0.002298
3788.000000	0.002333
3786.000000	0.002383
3784.000000	0.002479
3782.000000	0.002651
3780.000000	0.002903
3778.000000	0.003164
3776.000000	0.003349
3774.000000	0.003465
3772.000000	0.003543
3770.000000	0.003587
3768.000000	0.003558
3766.000000	0.003377
3764.000000	0.002990
3762.000000	0.002452
3760.000000	0.001949
3758.000000	0.001605
3756.000000	0.001414
3754.000000	0.001362
3752.000000	0.001403
3750.000000	0.001481
3748.000000	0.001626
3746.000000	0.001922
3744.000000	0.002324
3742.000000	0.002626
3740.000000	0.002728
3738.000000	0.002656
3736.000000	0.002497
3734.000000	0.002425
3732.000000	0.002484
3730.000000	0.002565
3728.000000	0.002573
3726.000000	0.002489
3724.000000	0.002367
3722.000000	0.002234
3720.000000	0.002030
3718.000000	0.001685
3716.000000	0.001220
3714.000000	0.000721
3712.000000	0.000253
3710.000000	-0.000120
3708.000000	-0.000355
3706.000000	-0.000465
3704.000000	-0.000464
3702.000000	-0.000347
3700.000000	-0.000145
3698.000000	0.000056
3696.000000	0.000236
3694.000000	0.000405
3692.000000	0.000522
3690.000000	0.000573
3688.000000	0.000626
3686.000000	0.000686
3684.000000	0.000748
3682.000000	0.000847
3680.000000	0.000954
3678.000000	0.001038
3676.000000	0.001139
3674.000000	0.001317
3672.000000	0.001542
3670.000000	0.001796
3668.000000	0.002037
3666.000000	0.002121
3664.000000	0.002019
3662.000000	0.001847
3660.000000	0.001709
3658.000000	0.001559
3656.000000	0.001337
3654.000000	0.001032
3652.000000	0.000660
3650.000000	0.000312
3648.000000	0.000175
3646.000000	0.000280
3644.000000	0.000402
3642.000000	0.000461
3640.000000	0.000463
3638.000000	0.000415
3636.000000	0.000339
3634.000000	0.000257
3632.000000	0.000122
3630.000000	-0.000146
3628.000000	-0.000535
3626.000000	-0.000984
3624.000000	-0.001440
3622.000000	-0.001866
3620.000000	-0.002186
3618.000000	-0.002352
3616.000000	-0.002417
3614.000000	-0.002444
3612.000000	-0.002418
3610.000000	-0.002301
3608.000000	-0.002081
3606.000000	-0.001750
3604.000000	-0.001377
3602.000000	-0.001053
3600.000000	-0.000796
3598.000000	-0.000576
3596.000000	-0.000370
3594.000000	-0.000187
3592.000000	-0.000050
3590.000000	0.000036
3588.000000	0.000087
3586.000000	0.000107
3584.000000	0.000092
3582.000000	0.000078
3580.000000	0.000081
3578.000000	0.000091
3576.000000	0.000096
3574.000000	0.000089
3572.000000	0.000064
3570.000000	0.000025
3568.000000	-0.000033
3566.000000	-0.000112
3564.000000	-0.000169
3562.000000	-0.000183
3560.000000	-0.000146
3558.000000	-0.000064
3556.000000	0.000021
3554.000000	0.000086
3552.000000	0.000196
3550.000000	0.000407
3548.000000	0.000671
3546.000000	0.000902
3544.000000	0.001044
3542.000000	0.001126
3540.000000	0.001236
3538.000000	0.001418
3536.000000	0.001635
3534.000000	0.001803
3532.000000	0.001893
3530.000000	0.001954
3528.000000	0.002044
3526.000000	0.002145
3524.000000	0.002175
3522.000000	0.002069
3520.000000	0.001812
3518.000000	0.001461
3516.000000	0.001077
3514.000000	0.000672
3512.000000	0.000235
3510.000000	-0.000204
3508.000000	-0.000565
3506.000000	-0.000785
3504.000000	-0.000853
3502.000000	-0.000805
3500.000000	-0.000700
3498.000000	-0.000593
3496.000000	-0.000486
3494.000000	-0.000352
3492.000000	-0.000227
3490.000000	-0.000161
3488.000000	-0.000136
3486.000000	-0.000131
3484.000000	-0.000162
3482.000000	-0.000186
3480.000000	-0.000166
3478.000000	-0.000142
3476.000000	-0.000101
3474.000000	-0.000008
3472.000000	0.000099
3470.000000	0.000168
3468.000000	0.000236
3466.000000	0.000344
3464.000000	0.000460
3462.000000	0.000561
3460.000000	0.000647
3458.000000	0.000716
3456.000000	0.000777
3454.000000	0.000857
3452.000000	0.000962
3450.000000	0.001077
3448.000000	0.001183
3446.000000	0.001278
3444.000000	0.001385
3442.000000	0.001493
3440.000000	0.001578
3438.000000	0.001652
3436.000000	0.001736
3434.000000	0.001819
3432.000000	0.001879
3430.000000	0.001929
3428.000000	0.001967
3426.000000	0.001968
3424.000000	0.001944
3422.000000	0.001931
3420.000000	0.001936
3418.000000	0.001934
3416.000000	0.001925
3414.000000	0.001933
3412.000000	0.001968
3410.000000	0.002026
3408.000000	0.002105
3406.000000	0.002193
3404.000000	0.002258
3402.000000	0.002288
3400.000000	0.002306
3398.000000	0.002312
3396.000000	0.002287
3394.000000	0.002221
3392.000000	0.002120
3390.000000	0.002002
3388.000000	0.001903
3386.000000	0.001837
3384.000000	0.001797
3382.000000	0.001761
3380.000000	0.001728
3378.000000	0.001749
3376.000000	0.001862
3374.000000	0.002028
3372.000000	0.002175
3370.000000	0.002280
3368.000000	0.002354
3366.000000	0.002396
3364.000000	0.002400
3362.000000	0.002348
3360.000000	0.002220
3358.000000	0.002040
3356.000000	0.001856
3354.000000	0.001707
3352.000000	0.001609
3350.000000	0.001553
3348.000000	0.001527
3346.000000	0.001544
3344.000000	0.001617
3342.000000	0.001717
3340.000000	0.001824
3338.000000	0.001952
3336.000000	0.002096
3334.000000	0.002230
3332.000000	0.002355
3330.000000	0.002506
3328.000000	0.002702
3326.000000	0.002928
3324.000000	0.003168
3322.000000	0.003379
3320.000000	0.003522
3318.000000	0.003622
3316.000000	0.003740
3314.000000	0.003861
3312.000000	0.003921
3310.000000	0.003901
3308.000000	0.003833
3306.000000	0.003779
3304.000000	0.003760
3302.000000	0.003738
3300.000000	0.003651
3298.000000	0.003490
3296.000000	0.003314
3294.000000	0.003169
3292.000000	0.003053
3290.000000	0.002933
3288.000000	0.002810
3286.000000	0.002726
3284.000000	0.002728
3282.000000	0.002820
3280.000000	0.002981
3278.000000	0.003182
3276.000000	0.003392
3274.000000	0.003592
3272.000000	0.003788
3270.000000	0.003975
3268.000000	0.004123
3266.000000	0.004221
3264.000000	0.004248
3262.000000	0.004190
3260.000000	0.004077
3258.000000	0.003945
3256.000000	0.003815
3254.000000	0.003705
3252.000000	0.003628
3250.000000	0.003573
3248.000000	0.003530
3246.000000	0.003513
3244.000000	0.003539
3242.000000	0.003614
3240.000000	0.003702
3238.000000	0.003732
3236.000000	0.003662
3234.000000	0.003513
3232.000000	0.003331
3230.000000	0.003146
3228.000000	0.002956
3226.000000	0.002744
3224.000000	0.002523
3222.000000	0.002340
3220.000000	0.002237
3218.000000	0.002221
3216.000000	0.002247
3214.000000	0.002265
3212.000000	0.002251
3210.000000	0.002223
3208.000000	0.002217
3206.000000	0.002223
3204.000000	0.002182
3202.000000	0.002090
3200.000000	0.001996
3198.000000	0.001927
3196.000000	0.001877
3194.000000	0.001807
3192.000000	0.001669
3190.000000	0.001452
3188.000000	0.001185
3186.000000	0.000881
3184.000000	0.000522
3182.000000	0.000122
3180.000000	-0.000256
3178.000000	-0.000542
3176.000000	-0.000692
3174.000000	-0.000710
3172.000000	-0.000637
3170.000000	-0.000474
3168.000000	-0.000198
3166.000000	0.000153
3164.000000	0.000487
3162.000000	0.000737
3160.000000	0.000882
3158.000000	0.000939
3156.000000	0.000929
3154.000000	0.000859
3152.000000	0.000731
3150.000000	0.000562
3148.000000	0.000417
3146.000000	0.000369
3144.000000	0.000415
3142.000000	0.000508
3140.000000	0.000611
3138.000000	0.000710
3136.000000	0.000811
3134.000000	0.000916
3132.000000	0.000975
3130.000000	0.000911
3128.000000	0.000717
3126.000000	0.000449
3124.000000	0.000161
3122.000000	-0.000114
3120.000000	-0.000371
3118.000000	-0.000626
3116.000000	-0.000869
3114.000000	-0.001064
3112.000000	-0.001194
3110.000000	-0.001269
3108.000000	-0.001294
3106.000000	-0.001271
3104.000000	-0.001208
3102.000000	-0.001138
3100.000000	-0.001074
3098.000000	-0.001005
3096.000000	-0.000933
3094.000000	-0.000883
3092.000000	-0.000877
3090.000000	-0.000911
3088.000000	-0.000959
3086.000000	-0.001003
3084.000000	-0.001039
3082.000000	-0.001068
3080.000000	-0.001089
3078.000000	-0.001087
3076.000000	-0.001055
3074.000000	-0.001010
3072.000000	-0.000978
3070.000000	-0.000959
3068.000000	-0.000938
3066.000000	-0.000925
3064.000000	-0.000917
3062.000000	-0.000899
3060.000000	-0.000858
3058.000000	-0.000778
3056.000000	-0.000661
3054.000000	-0.000531
3052.000000	-0.000417
3050.000000	-0.000312
3048.000000	-0.000208
3046.000000	-0.000130
3044.000000	-0.000104
3042.000000	-0.000134
3040.000000	-0.000202
3038.000000	-0.000289
3036.000000	-0.000393
3034.000000	-0.000518
3032.000000	-0.000663
3030.000000	-0.000799
3028.000000	-0.000889
3026.000000	-0.000938
3024.000000	-0.000973
3022.000000	-0.000998
3020.000000	-0.000997
3018.000000	-0.000960
3016.000000	-0.000873
3014.000000	-0.000737
3012.000000	-0.000594
3010.000000	-0.000470
3008.000000	-0.000358
3006.000000	-0.000260
3004.000000	-0.000199
3002.000000	-0.000180
3000.000000	-0.000186
2998.000000	-0.000212
2996.000000	-0.000255
2994.000000	-0.000319
2992.000000	-0.000426
2990.000000	-0.000563
2988.000000	-0.000691
2986.000000	-0.000790
2984.000000	-0.000863
2982.000000	-0.000930
2980.000000	-0.001009
2978.000000	-0.001085
2976.000000	-0.001089
2974.000000	-0.000989
2972.000000	-0.000836
2970.000000	-0.000667
2968.000000	-0.000515
2966.000000	-0.000410
2964.000000	-0.000335
2962.000000	-0.000254
2960.000000	-0.000164
2958.000000	-0.000100
2956.000000	-0.000072
2954.000000	-0.000081
2952.000000	-0.000121
2950.000000	-0.000148
2948.000000	-0.000129
2946.000000	-0.000100
2944.000000	-0.000099
2942.000000	-0.000124
2940.000000	-0.000162
2938.000000	-0.000202
2936.000000	-0.000236
2934.000000	-0.000270
2932.000000	-0.000314
2930.000000	-0.000385
2928.000000	-0.000482
2926.000000	-0.000595
2924.000000	-0.000710
2922.000000	-0.000806
2920.000000	-0.000859
2918.000000	-0.000853
2916.000000	-0.000788
2914.000000	-0.000667
2912.000000	-0.000493
2910.000000	-0.000285
2908.000000	-0.000076
2906.000000	0.000115
2904.000000	0.000293
2902.000000	0.000446
2900.000000	0.000545
2898.000000	0.000572
2896.000000	0.000539
2894.000000	0.000477
2892.000000	0.000422
2890.000000	0.000373
2888.000000	0.000294
2886.000000	0.000152
2884.000000	-0.000023
2882.000000	-0.000174
2880.000000	-0.000296
2878.000000	-0.000419
2876.000000	-0.000557
2874.000000	-0.000684
2872.000000	-0.000761
2870.000000	-0.000778
2868.000000	-0.000738
2866.000000	-0.000635
2864.000000	-0.000467
2862.000000	-0.000243
2860.000000	0.000037
2858.000000	0.000363
2856.000000	0.000702
2854.000000	0.001031
2852.000000	0.001348
2850.000000	0.001624
2848.000000	0.001823
2846.000000	0.001936
2844.000000	0.001981
2842.000000	0.001950
2840.000000	0.001829
2838.000000	0.001655
2836.000000	0.001469
2834.000000	0.001282
2832.000000	0.001096
2830.000000	0.000910
2828.000000	0.000730
2826.000000	0.000585
2824.000000	0.000494
2822.000000	0.000429
2820.000000	0.000345
2818.000000	0.000231
2816.000000	0.000104
2814.000000	-0.000011
2812.000000	-0.000103
2810.000000	-0.000178
2808.000000	-0.000264
2806.000000	-0.000358
2804.000000	-0.000426
2802.000000	-0.000451
2800.000000	-0.000422
2798.000000	-0.000346
2796.000000	-0.000270
2794.000000	-0.000235
2792.000000	-0.000217
2790.000000	-0.000184
2788.000000	-0.000139
2786.000000	-0.000096
2784.000000	-0.000077
2782.000000	-0.000083
2780.000000	-0.000064
2778.000000	-0.000052
2776.000000	-0.000026
2774.000000	0.000001
2772.000000	0.000024
2770.000000	0.000046
2768.000000	0.000087
2766.000000	0.000165
2764.000000	0.000281
2762.000000	0.000431
2760.000000	0.000605
2758.000000	0.000798
2756.000000	0.001007
2754.000000	0.001220
2752.000000	0.001430
2750.000000	0.001635
2748.000000	0.001839
2746.000000	0.002039
2744.000000	0.002243
2742.000000	0.002487
2740.000000	0.002766
2738.000000	0.003026
2736.000000	0.003243
2734.000000	0.003403
2732.000000	0.003485
2730.000000	0.003505
2728.000000	0.003488
2726.000000	0.003428
2724.000000	0.003319
2722.000000	0.003204
2720.000000	0.003139
2718.000000	0.003140
2716.000000	0.003208
2714.000000	0.003331
2712.000000	0.003488
2710.000000	0.003675
2708.000000	0.003860
2706.000000	0.004007
2704.000000	0.004136
2702.000000	0.004274
2700.000000	0.004408
2698.000000	0.004517
2696.000000	0.004578
2694.000000	0.004595
2692.000000	0.004628
2690.000000	0.004720
2688.000000	0.004838
2686.000000	0.004943
2684.000000	0.005058
2682.000000	0.005212
2680.000000	0.005433
2678.000000	0.005736
2676.000000	0.006080
2674.000000	0.006421
2672.000000	0.006759
2670.000000	0.007086
2668.000000	0.007368
2666.000000	0.007606
2664.000000	0.007811
2662.000000	0.007976
2660.000000	0.008113
2658.000000	0.008228
2656.000000	0.008318
2654.000000	0.008404
2652.000000	0.008507
2650.000000	0.008613
2648.000000	0.008701
2646.000000	0.008772
2644.000000	0.008829
2642.000000	0.008878
2640.000000	0.008936
2638.000000	0.008988
2636.000000	0.009010
2634.000000	0.009005
2632.000000	0.008996
2630.000000	0.008993
2628.000000	0.008997
2626.000000	0.009002
2624.000000	0.008999
2622.000000	0.008990
2620.000000	0.009008
2618.000000	0.009079
2616.000000	0.009184
2614.000000	0.009286
2612.000000	0.009376
2610.000000	0.009473
2608.000000	0.009577
2606.000000	0.009684
2604.000000	0.009776
2602.000000	0.009825
2600.000000	0.009846
2598.000000	0.009869
2596.000000	0.009914
2594.000000	0.009978
2592.000000	0.010036
2590.000000	0.010089
2588.000000	0.010178
2586.000000	0.010325
2584.000000	0.010514
2582.000000	0.010743
2580.000000	0.011018
2578.000000	0.011317
2576.000000	0.011631
2574.000000	0.011981
2572.000000	0.012356
2570.000000	0.012722
2568.000000	0.013079
2566.000000	0.013429
2564.000000	0.013737
2562.000000	0.013986
2560.000000	0.014184
2558.000000	0.014312
2556.000000	0.014355
2554.000000	0.014329
2552.000000	0.014235
2550.000000	0.014079
2548.000000	0.013894
2546.000000	0.013709
2544.000000	0.013520
2542.000000	0.013341
2540.000000	0.013194
2538.000000	0.013065
2536.000000	0.012934
2534.000000	0.012811
2532.000000	0.012708
2530.000000	0.012632
2528.000000	0.012578
2526.000000	0.012535
2524.000000	0.012514
2522.000000	0.012555
2520.000000	0.012685
2518.000000	0.012877
2516.000000	0.013089
2514.000000	0.013289
2512.000000	0.013482
2510.000000	0.013699
2508.000000	0.013940
2506.000000	0.014148
2504.000000	0.014265
2502.000000	0.014301
2500.000000	0.014311
2498.000000	0.014307
2496.000000	0.014270
2494.000000	0.014178
2492.000000	0.014018
2490.000000	0.013804
2488.000000	0.013568
2486.000000	0.013326
2484.000000	0.013056
2482.000000	0.012751
2480.000000	0.012440
2478.000000	0.012140
2476.000000	0.011858
2474.000000	0.011612
2472.000000	0.011411
2470.000000	0.011228
2468.000000	0.011050
2466.000000	0.010904
2464.000000	0.010787
2462.000000	0.010674
2460.000000	0.010575
2458.000000	0.010510
2456.000000	0.010463
2454.000000	0.010432
2452.000000	0.010428
2450.000000	0.010437
2448.000000	0.010466
2446.000000	0.010543
2444.000000	0.010646
2442.000000	0.010728
2440.000000	0.010786
2438.000000	0.010845
2436.000000	0.010922
2434.000000	0.011009
2432.000000	0.011078
2430.000000	0.011079
2428.000000	0.010997
2426.000000	0.010876
2424.000000	0.010735
2422.000000	0.010552
2420.000000	0.010324
2418.000000	0.010087
2416.000000	0.009885
2414.000000	0.009768
2412.000000	0.009744
2410.000000	0.009759
2408.000000	0.009756
2406.000000	0.009759
2404.000000	0.009790
2402.000000	0.009807
2400.000000	0.009754
2398.000000	0.009605
2396.000000	0.009380
2394.000000	0.009160
2392.000000	0.009025
2390.000000	0.008968
2388.000000	0.008924
2386.000000	0.008899
2384.000000	0.008969
2382.000000	0.009131
2380.000000	0.009254
2378.000000	0.009257
2376.000000	0.009259
2374.000000	0.009446
2372.000000	0.009840
2370.000000	0.010271
2368.000000	0.010470
2366.000000	0.010426
2364.000000	0.010446
2362.000000	0.010767
2360.000000	0.011191
2358.000000	0.011221
2356.000000	0.010670
2354.000000	0.009841
2352.000000	0.009189
2350.000000	0.008844
2348.000000	0.008613
2346.000000	0.008274
2344.000000	0.007752
2342.000000	0.007157
2340.000000	0.006723
2338.000000	0.006548
2336.000000	0.006465
2334.000000	0.006235
2332.000000	0.005799
2330.000000	0.005257
2328.000000	0.004719
2326.000000	0.004308
2324.000000	0.004034
2322.000000	0.003815
2320.000000	0.003620
2318.000000	0.003494
2316.000000	0.003497
2314.000000	0.003630
2312.000000	0.003841
2310.000000	0.004064
2308.000000	0.004266
2306.000000	0.004435
2304.000000	0.004535
2302.000000	0.004554
2300.000000	0.004515
2298.000000	0.004461
2296.000000	0.004430
2294.000000	0.004438
2292.000000	0.004485
2290.000000	0.004561
2288.000000	0.004664
2286.000000	0.004793
2284.000000	0.004918
2282.000000	0.004994
2280.000000	0.005003
2278.000000	0.004944
2276.000000	0.004807
2274.000000	0.004590
2272.000000	0.004306
2270.000000	0.003983
2268.000000	0.003661
2266.000000	0.003380
2264.000000	0.003154
2262.000000	0.002964
2260.000000	0.002811
2258.000000	0.002732
2256.000000	0.002738
2254.000000	0.002803
2252.000000	0.002888
2250.000000	0.002963
2248.000000	0.003002
2246.000000	0.003007
2244.000000	0.003006
2242.000000	0.002998
2240.000000	0.002962
2238.000000	0.002880
2236.000000	0.002750
2234.000000	0.002586
2232.000000	0.002409
2230.000000	0.002211
2228.000000	0.001968
2226.000000	0.001681
2224.000000	0.001360
2222.000000	0.001029
2220.000000	0.000734
2218.000000	0.000481
2216.000000	0.000257
2214.000000	0.000093
2212.000000	0.000026
2210.000000	0.000041
2208.000000	0.000114
2206.000000	0.000242
2204.000000	0.000394
2202.000000	0.000545
2200.000000	0.000697
2198.000000	0.000819
2196.000000	0.000875
2194.000000	0.000885
2192.000000	0.000901
2190.000000	0.000940
2188.000000	0.000999
2186.000000	0.001057
2184.000000	0.001094
2182.000000	0.001129
2180.000000	0.001184
2178.000000	0.001231
2176.000000	0.001215
2174.000000	0.001112
2172.000000	0.000936
2170.000000	0.000723
2168.000000	0.000502
2166.000000	0.000290
2164.000000	0.000079
2162.000000	-0.000136
2160.000000	-0.000322
2158.000000	-0.000467
2156.000000	-0.000591
2154.000000	-0.000703
2152.000000	-0.000790
2150.000000	-0.000851
2148.000000	-0.000903
2146.000000	-0.000955
2144.000000	-0.001004
2142.000000	-0.001056
2140.000000	-0.001110
2138.000000	-0.001156
2136.000000	-0.001203
2134.000000	-0.001268
2132.000000	-0.001346
2130.000000	-0.001435
2128.000000	-0.001531
2126.000000	-0.001607
2124.000000	-0.001637
2122.000000	-0.001627
2120.000000	-0.001595
2118.000000	-0.001555
2116.000000	-0.001507
2114.000000	-0.001437
2112.000000	-0.001349
2110.000000	-0.001267
2108.000000	-0.001211
2106.000000	-0.001186
2104.000000	-0.001185
2102.000000	-0.001185
2100.000000	-0.001159
2098.000000	-0.001093
2096.000000	-0.000986
2094.000000	-0.000853
2092.000000	-0.000708
2090.000000	-0.000556
2088.000000	-0.000405
2086.000000	-0.000269
2084.000000	-0.000150
2082.000000	-0.000061
2080.000000	0.000000
2078.000000	-0.000016
2076.000000	-0.000058
2074.000000	-0.000108
2072.000000	-0.000150
2070.000000	-0.000163
2068.000000	-0.000153
2066.000000	-0.000146
2064.000000	-0.000144
2062.000000	-0.000130
2060.000000	-0.000085
2058.000000	-0.000009
2056.000000	0.000090
2054.000000	0.000194
2052.000000	0.000287
2050.000000	0.000378
2048.000000	0.000483
2046.000000	0.000594
2044.000000	0.000694
2042.000000	0.000779
2040.000000	0.000842
2038.000000	0.000889
2036.000000	0.000948
2034.000000	0.001027
2032.000000	0.001123
2030.000000	0.001243
2028.000000	0.001386
2026.000000	0.001547
2024.000000	0.001741
2022.000000	0.001961
2020.000000	0.002170
2018.000000	0.002355
2016.000000	0.002525
2014.000000	0.002672
2012.000000	0.002784
2010.000000	0.002863
2008.000000	0.002925
2006.000000	0.002978
2004.000000	0.003025
2002.000000	0.003088
2000.000000	0.003186
1998.000000	0.003323
1996.000000	0.003498
1994.000000	0.003716
1992.000000	0.003954
1990.000000	0.004174
1988.000000	0.004389
1986.000000	0.004614
1984.000000	0.004836
1982.000000	0.005048
1980.000000	0.005241
1978.000000	0.005403
1976.000000	0.005537
1974.000000	0.005668
1972.000000	0.005822
1970.000000	0.006003
1968.000000	0.006211
1966.000000	0.006427
1964.000000	0.006633
1962.000000	0.006850
1960.000000	0.007107
1958.000000	0.007401
1956.000000	0.007697
1954.000000	0.007955
1952.000000	0.008157
1950.000000	0.008310
1948.000000	0.008443
1946.000000	0.008585
1944.000000	0.008735
1942.000000	0.008879
1940.000000	0.009013
1938.000000	0.009170
1936.000000	0.009384
1934.000000	0.009658
1932.000000	0.009978
1930.000000	0.010314
1928.000000	0.010623
1926.000000	0.010884
1924.000000	0.011116
1922.000000	0.011332
1920.000000	0.011510
1918.000000	0.011638
1916.000000	0.011725
1914.000000	0.011786
1912.000000	0.011833
1910.000000	0.011883
1908.000000	0.011953
1906.000000	0.012039
1904.000000	0.012140
1902.000000	0.012262
1900.000000	0.012396
1898.000000	0.012541
1896.000000	0.012706
1894.000000	0.012899
1892.000000	0.013107
1890.000000	0.013327
1888.000000	0.013573
1886.000000	0.013838
1884.000000	0.014097
1882.000000	0.014336
1880.000000	0.014554
1878.000000	0.014757
1876.000000	0.014939
1874.000000	0.015085
1872.000000	0.015173
1870.000000	0.015218
1868.000000	0.015265
1866.000000	0.015344
1864.000000	0.015454
1862.000000	0.015594
1860.000000	0.015770
1858.000000	0.015981
1856.000000	0.016229
1854.000000	0.016507
1852.000000	0.016782
1850.000000	0.017039
1848.000000	0.017288
1846.000000	0.017526
1844.000000	0.017715
1842.000000	0.017837
1840.000000	0.017930
1838.000000	0.018014
1836.000000	0.018078
1834.000000	0.018098
1832.000000	0.018075
1830.000000	0.018033
1828.000000	0.018011
1826.000000	0.018056
1824.000000	0.018167
1822.000000	0.018318
1820.000000	0.018520
1818.000000	0.018796
1816.000000	0.019132
1814.000000	0.019503
1812.000000	0.019898
1810.000000	0.020278
1808.000000	0.020594
1806.000000	0.020819
1804.000000	0.020928
1802.000000	0.020916
1800.000000	0.020816
1798.000000	0.020666
1796.000000	0.020462
1794.000000	0.020189
1792.000000	0.019880
1790.000000	0.019597
1788.000000	0.019361
1786.000000	0.019166
1784.000000	0.018997
1782.000000	0.018834
1780.000000	0.018655
1778.000000	0.018462
1776.000000	0.018264
1774.000000	0.018036
1772.000000	0.017757
1770.000000	0.017463
1768.000000	0.017190
1766.000000	0.016930
1764.000000	0.016677
1762.000000	0.016442
1760.000000	0.016240
1758.000000	0.016088
1756.000000	0.016008
1754.000000	0.015976
1752.000000	0.015928
1750.000000	0.015849
1748.000000	0.015775
1746.000000	0.015705
1744.000000	0.015620
1742.000000	0.015507
1740.000000	0.015338
1738.000000	0.015126
1736.000000	0.014935
1734.000000	0.014809
1732.000000	0.014743
1730.000000	0.014737
1728.000000	0.014788
1726.000000	0.014896
1724.000000	0.015066
1722.000000	0.015290
1720.000000	0.015538
1718.000000	0.015761
1716.000000	0.015884
1714.000000	0.015895
1712.000000	0.015855
1710.000000	0.015779
1708.000000	0.015664
1706.000000	0.015517
1704.000000	0.015345
1702.000000	0.015177
1700.000000	0.015083
1698.000000	0.015109
1696.000000	0.015199
1694.000000	0.015313
1692.000000	0.015453
1690.000000	0.015630
1688.000000	0.015855
1686.000000	0.016124
1684.000000	0.016402
1682.000000	0.016650
1680.000000	0.016896
1678.000000	0.017169
1676.000000	0.017484
1674.000000	0.017830
1672.000000	0.018196
1670.000000	0.018600
1668.000000	0.019045
1666.000000	0.019513
1664.000000	0.020001
1662.000000	0.020492
1660.000000	0.020959
1658.000000	0.021404
1656.000000	0.021830
1654.000000	0.022214
1652.000000	0.022541
1650.000000	0.022861
1648.000000	0.023224
1646.000000	0.023654
1644.000000	0.024162
1642.000000	0.024733
1640.000000	0.025346
1638.000000	0.026015
1636.000000	0.026801
1634.000000	0.027711
1632.000000	0.028659
1630.000000	0.029626
1628.000000	0.030615
1626.000000	0.031627
1624.000000	0.032691
1622.000000	0.033857
1620.000000	0.035100
1618.000000	0.036368
1616.000000	0.037680
1614.000000	0.039062
1612.000000	0.040514
1610.000000	0.042051
1608.000000	0.043686
1606.000000	0.045395
1604.000000	0.047153
1602.000000	0.048961
1600.000000	0.050820
1598.000000	0.052728
1596.000000	0.054669
1594.000000	0.056601
1592.000000	0.058456
1590.000000	0.060184
1588.000000	0.061779
1586.000000	0.063248
1584.000000	0.064583
1582.000000	0.065775
1580.000000	0.066822
1578.000000	0.067723
1576.000000	0.068500
1574.000000	0.069230
1572.000000	0.069988
1570.000000	0.070784
1568.000000	0.071602
1566.000000	0.072404
1564.000000	0.073189
1562.000000	0.074002
1560.000000	0.074882
1558.000000	0.075782
1556.000000	0.076499
1554.000000	0.077014
1552.000000	0.077427
1550.000000	0.077812
1548.000000	0.078207
1546.000000	0.078608
1544.000000	0.078990
1542.000000	0.079373
1540.000000	0.079923
1538.000000	0.080782
1536.000000	0.081777
1534.000000	0.082777
1532.000000	0.083700
1530.000000	0.084537
1528.000000	0.085293
1526.000000	0.085949
1524.000000	0.086442
1522.000000	0.086684
1520.000000	0.086682
1518.000000	0.086539
1516.000000	0.086328
1514.000000	0.086078
1512.000000	0.085795
1510.000000	0.085499
1508.000000	0.085234
1506.000000	0.085033
1504.000000	0.084893
1502.000000	0.084843
1500.000000	0.084905
1498.000000	0.085089
1496.000000	0.085400
1494.000000	0.085821
1492.000000	0.086318
1490.000000	0.086875
1488.000000	0.087502
1486.000000	0.088182
1484.000000	0.088870
1482.000000	0.089531
1480.000000	0.090149
1478.000000	0.090722
1476.000000	0.091259
1474.000000	0.091740
1472.000000	0.092090
1470.000000	0.092262
1468.000000	0.092264
1466.000000	0.092096
1464.000000	0.091739
1462.000000	0.091177
1460.000000	0.090416
1458.000000	0.089479
1456.000000	0.088456
1454.000000	0.087471
1452.000000	0.086538
1450.000000	0.085652
1448.000000	0.084821
1446.000000	0.084081
1444.000000	0.083486
1442.000000	0.083059
1440.000000	0.082781
1438.000000	0.082616
1436.000000	0.082556
1434.000000	0.082619
1432.000000	0.082828
1430.000000	0.083183
1428.000000	0.083640
1426.000000	0.084134
1424.000000	0.084623
1422.000000	0.085084
1420.000000	0.085485
1418.000000	0.085778
1416.000000	0.085907
1414.000000	0.085835
1412.000000	0.085549
1410.000000	0.085076
1408.000000	0.084459
1406.000000	0.083714
1404.000000	0.082840
1402.000000	0.081877
1400.000000	0.080877
1398.000000	0.079882
1396.000000	0.078911
1394.000000	0.077904
1392.000000	0.076797
1390.000000	0.075615
1388.000000	0.074420
1386.000000	0.073273
1384.000000	0.072223
1382.000000	0.071329
1380.000000	0.070682
1378.000000	0.070425
1376.000000	0.070687
1374.000000	0.071501
1372.000000	0.072809
1370.000000	0.074517
1368.000000	0.076504
1366.000000	0.078630
1364.000000	0.080766
1362.000000	0.082788
1360.000000	0.084568
1358.000000	0.086030
1356.000000	0.087155
1354.000000	0.087951
1352.000000	0.088439
1350.000000	0.088665
1348.000000	0.088670
1346.000000	0.088482
1344.000000	0.088133
1342.000000	0.087653
1340.000000	0.087054
1338.000000	0.086346
1336.000000	0.085564
1334.000000	0.084741
1332.000000	0.083890
1330.000000	0.083018
1328.000000	0.082134
1326.000000	0.081240
1324.000000	0.080340
1322.000000	0.079452
1320.000000	0.078565
1318.000000	0.077655
1316.000000	0.076722
1314.000000	0.075776
1312.000000	0.074823
1310.000000	0.073876
1308.000000	0.072944
1306.000000	0.072028
1304.000000	0.071143
1302.000000	0.070306
1300.000000	0.069508
1298.000000	0.068738
1296.000000	0.067991
1294.000000	0.067260
1292.000000	0.066532
1290.000000	0.065806
1288.000000	0.065077
1286.000000	0.064348
1284.000000	0.063637
1282.000000	0.062953
1280.000000	0.062301
1278.000000	0.061688
1276.000000	0.061117
1274.000000	0.060583
1272.000000	0.060077
1270.000000	0.059595
1268.000000	0.059132
1266.000000	0.058691
1264.000000	0.058278
1262.000000	0.057883
1260.000000	0.057505
1258.000000	0.057147
1256.000000	0.056818
1254.000000	0.056526
1252.000000	0.056264
1250.000000	0.056010
1248.000000	0.055756
1246.000000	0.055511
1244.000000	0.055275
1242.000000	0.055048
1240.000000	0.054825
1238.000000	0.054585
1236.000000	0.054317
1234.000000	0.054038
1232.000000	0.053754
1230.000000	0.053450
1228.000000	0.053114
1226.000000	0.052755
1224.000000	0.052378
1222.000000	0.051984
1220.000000	0.051578
1218.000000	0.051164
1216.000000	0.050750
1214.000000	0.050353
1212.000000	0.049972
1210.000000	0.049583
1208.000000	0.049167
1206.000000	0.048722
1204.000000	0.048250
1202.000000	0.047754
1200.000000	0.047225
1198.000000	0.046654
1196.000000	0.046055
1194.000000	0.045453
1192.000000	0.044876
1190.000000	0.044353
1188.000000	0.043907
1186.000000	0.043538
1184.000000	0.043228
1182.000000	0.042967
1180.000000	0.042754
1178.000000	0.042586
1176.000000	0.042435
1174.000000	0.042260
1172.000000	0.042038
1170.000000	0.041769
1168.000000	0.041481
1166.000000	0.041201
1164.000000	0.040933
1162.000000	0.040662
1160.000000	0.040386
1158.000000	0.040139
1156.000000	0.039960
1154.000000	0.039839
1152.000000	0.039730
1150.000000	0.039607
1148.000000	0.039479
1146.000000	0.039364
1144.000000	0.039270
1142.000000	0.039191
1140.000000	0.039093
1138.000000	0.038957
1136.000000	0.038813
1134.000000	0.038698
1132.000000	0.038621
1130.000000	0.038562
1128.000000	0.038479
1126.000000	0.038355
1124.000000	0.038215
1122.000000	0.038077
1120.000000	0.037920
1118.000000	0.037714
1116.000000	0.037444
1114.000000	0.037114
1112.000000	0.036754
1110.000000	0.036407
1108.000000	0.036112
1106.000000	0.035904
1104.000000	0.035827
1102.000000	0.035898
1100.000000	0.036097
1098.000000	0.036382
1096.000000	0.036719
1094.000000	0.037095
1092.000000	0.037460
1090.000000	0.037696
1088.000000	0.037680
1086.000000	0.037358
1084.000000	0.036761
1082.000000	0.035976
1080.000000	0.035061
1078.000000	0.034015
1076.000000	0.032848
1074.000000	0.031628
1072.000000	0.030433
1070.000000	0.029312
1068.000000	0.028287
1066.000000	0.027348
1064.000000	0.026469
1062.000000	0.025640
1060.000000	0.024857
1058.000000	0.024113
1056.000000	0.023412
1054.000000	0.022763
1052.000000	0.022152
1050.000000	0.021550
1048.000000	0.020958
1046.000000	0.020391
1044.000000	0.019855
1042.000000	0.019353
1040.000000	0.018883
1038.000000	0.018433
1036.000000	0.018009
1034.000000	0.017616
1032.000000	0.017237
1030.000000	0.016845
1028.000000	0.016416
1026.000000	0.015936
1024.000000	0.015404
1022.000000	0.014841
1020.000000	0.014259
1018.000000	0.013655
1016.000000	0.013031
1014.000000	0.012399
1012.000000	0.011771
1010.000000	0.011172
1008.000000	0.010618
1006.000000	0.010101
1004.000000	0.009599
1002.000000	0.009092
1000.000000	0.008580
998.000000	0.008082
996.000000	0.007616
994.000000	0.007183
992.000000	0.006768
990.000000	0.006364
988.000000	0.005986
986.000000	0.005640
984.000000	0.005334
982.000000	0.005095
980.000000	0.004923
978.000000	0.004798
976.000000	0.004727
974.000000	0.004736
972.000000	0.004814
970.000000	0.004935
968.000000	0.005102
966.000000	0.005298
964.000000	0.005500
962.000000	0.005721
960.000000	0.005954
958.000000	0.006159
956.000000	0.006325
954.000000	0.006482
952.000000	0.006639
950.000000	0.006793
948.000000	0.006950
946.000000	0.007108
944.000000	0.007267
942.000000	0.007451
940.000000	0.007673
938.000000	0.007925
936.000000	0.008202
934.000000	0.008503
932.000000	0.008811
930.000000	0.009123
928.000000	0.009455
926.000000	0.009813
924.000000	0.010191
922.000000	0.010588
920.000000	0.011021
918.000000	0.011515
916.000000	0.012091
914.000000	0.012741
912.000000	0.013440
910.000000	0.014192
908.000000	0.015017
906.000000	0.015923
904.000000	0.016905
902.000000	0.017949
900.000000	0.019053
898.000000	0.020268
896.000000	0.021696
894.000000	0.023391
892.000000	0.025355
890.000000	0.027607
888.000000	0.030185
886.000000	0.033116
884.000000	0.036379
882.000000	0.039892
880.000000	0.043534
878.000000	0.047176
876.000000	0.050722
874.000000	0.054047
872.000000	0.056923
870.000000	0.059069
868.000000	0.060278
866.000000	0.060455
864.000000	0.059542
862.000000	0.057516
860.000000	0.054369
858.000000	0.050133
856.000000	0.045001
854.000000	0.039323
852.000000	0.033479
850.000000	0.027781
848.000000	0.022442
846.000000	0.017581
844.000000	0.013260
842.000000	0.009577
840.000000	0.006623
838.000000	0.004363
836.000000	0.002678
834.000000	0.001462
832.000000	0.000621
830.000000	0.000085
828.000000	-0.000169
826.000000	-0.000171
824.000000	0.000012
822.000000	0.000307
820.000000	0.000724
818.000000	0.001216
816.000000	0.001718
814.000000	0.002207
812.000000	0.002677
810.000000	0.003120
808.000000	0.003537
806.000000	0.003947
804.000000	0.004368
802.000000	0.004802
800.000000	0.005244
798.000000	0.005685
796.000000	0.006130
794.000000	0.006598
792.000000	0.007103
790.000000	0.007603
788.000000	0.008000
786.000000	0.008267
784.000000	0.008449
782.000000	0.008587
780.000000	0.008704
778.000000	0.008786
776.000000	0.008818
774.000000	0.008825
772.000000	0.008869
770.000000	0.009009
768.000000	0.009300
766.000000	0.009793
764.000000	0.010466
762.000000	0.011258
760.000000	0.012159
758.000000	0.013182
756.000000	0.014316
754.000000	0.015521
752.000000	0.016685
750.000000	0.017592
748.000000	0.018104
746.000000	0.018306
744.000000	0.018317
742.000000	0.018131
740.000000	0.017718
738.000000	0.017102
736.000000	0.016378
734.000000	0.015769
732.000000	0.015558
730.000000	0.015827
728.000000	0.016398
726.000000	0.017062
724.000000	0.017755
722.000000	0.018622
720.000000	0.019733
718.000000	0.020808
716.000000	0.021623
714.000000	0.022233
712.000000	0.022792
710.000000	0.023487
708.000000	0.024714
706.000000	0.026585
704.000000	0.028516
702.000000	0.030525
700.000000	0.032948
