PE IR       SUBTECH     SPECTRUM    ASCII       PEDS        4.00        
   -1
LC_11.asc
14/09/17
10:57:44.00
14/09/26
09:50:48.00
nystrom.12
Co-added spectrum 1 at -112, -560 (Image Marker 1)
700.000000
#HDR
-1
-1
#GR
cm-1
A
1.0
0.0
4000.000000
-2.000000
1651
8
0.123458
-0.008777
#DATA
4000.000000	-0.000365
3998.000000	-0.000358
3996.000000	-0.000326
3994.000000	-0.000247
3992.000000	-0.000121
3990.000000	0.000000
3988.000000	0.000177
3986.000000	0.000420
3984.000000	0.000774
3982.000000	0.001208
3980.000000	0.001655
3978.000000	0.002074
3976.000000	0.002438
3974.000000	0.002729
3972.000000	0.002946
3970.000000	0.003090
3968.000000	0.003094
3966.000000	0.002908
3964.000000	0.002609
3962.000000	0.002289
3960.000000	0.001991
3958.000000	0.001729
3956.000000	0.001502
3954.000000	0.001299
3952.000000	0.001118
3950.000000	0.000993
3948.000000	0.000920
3946.000000	0.000838
3944.000000	0.000736
3942.000000	0.000636
3940.000000	0.000552
3938.000000	0.000505
3936.000000	0.000530
3934.000000	0.000661
3932.000000	0.000907
3930.000000	0.001232
3928.000000	0.001576
3926.000000	0.001917
3924.000000	0.002265
3922.000000	0.002627
3920.000000	0.003006
3918.000000	0.003380
3916.000000	0.003705
3914.000000	0.003965
3912.000000	0.004214
3910.000000	0.004506
3908.000000	0.004807
3906.000000	0.005036
3904.000000	0.005145
3902.000000	0.005076
3900.000000	0.004816
3898.000000	0.004492
3896.000000	0.004200
3894.000000	0.003926
3892.000000	0.003664
3890.000000	0.003435
3888.000000	0.003269
3886.000000	0.003231
3884.000000	0.003327
3882.000000	0.003441
3880.000000	0.003455
3878.000000	0.003351
3876.000000	0.003175
3874.000000	0.002958
3872.000000	0.002711
3870.000000	0.002403
3868.000000	0.002030
3866.000000	0.001662
3864.000000	0.001386
3862.000000	0.001224
3860.000000	0.001148
3858.000000	0.001124
3856.000000	0.001146
3854.000000	0.001277
3852.000000	0.001644
3850.000000	0.002170
3848.000000	0.002717
3846.000000	0.003245
3844.000000	0.003735
3842.000000	0.004207
3840.000000	0.004718
3838.000000	0.005222
3836.000000	0.005577
3834.000000	0.005772
3832.000000	0.005839
3830.000000	0.005794
3828.000000	0.005699
3826.000000	0.005606
3824.000000	0.005473
3822.000000	0.005252
3820.000000	0.004989
3818.000000	0.004750
3816.000000	0.004568
3814.000000	0.004474
3812.000000	0.004496
3810.000000	0.004583
3808.000000	0.004692
3806.000000	0.004794
3804.000000	0.004822
3802.000000	0.004742
3800.000000	0.004557
3798.000000	0.004263
3796.000000	0.003906
3794.000000	0.003560
3792.000000	0.003226
3790.000000	0.002892
3788.000000	0.002641
3786.000000	0.002543
3784.000000	0.002548
3782.000000	0.002582
3780.000000	0.002639
3778.000000	0.002698
3776.000000	0.002763
3774.000000	0.002898
3772.000000	0.003097
3770.000000	0.003293
3768.000000	0.003502
3766.000000	0.003834
3764.000000	0.004305
3762.000000	0.004830
3760.000000	0.005354
3758.000000	0.005836
3756.000000	0.006243
3754.000000	0.006595
3752.000000	0.006924
3750.000000	0.007193
3748.000000	0.007375
3746.000000	0.007521
3744.000000	0.007600
3742.000000	0.007575
3740.000000	0.007537
3738.000000	0.007575
3736.000000	0.007683
3734.000000	0.007766
3732.000000	0.007720
3730.000000	0.007533
3728.000000	0.007267
3726.000000	0.007032
3724.000000	0.006884
3722.000000	0.006737
3720.000000	0.006510
3718.000000	0.006251
3716.000000	0.006064
3714.000000	0.005992
3712.000000	0.006005
3710.000000	0.005997
3708.000000	0.005810
3706.000000	0.005464
3704.000000	0.005071
3702.000000	0.004695
3700.000000	0.004328
3698.000000	0.003973
3696.000000	0.003646
3694.000000	0.003371
3692.000000	0.003222
3690.000000	0.003271
3688.000000	0.003461
3686.000000	0.003683
3684.000000	0.003899
3682.000000	0.004089
3680.000000	0.004245
3678.000000	0.004389
3676.000000	0.004584
3674.000000	0.004866
3672.000000	0.005152
3670.000000	0.005404
3668.000000	0.005651
3666.000000	0.005945
3664.000000	0.006331
3662.000000	0.006850
3660.000000	0.007451
3658.000000	0.008016
3656.000000	0.008487
3654.000000	0.008870
3652.000000	0.009185
3650.000000	0.009445
3648.000000	0.009660
3646.000000	0.009684
3644.000000	0.009493
3642.000000	0.009246
3640.000000	0.009053
3638.000000	0.008963
3636.000000	0.009001
3634.000000	0.009155
3632.000000	0.009373
3630.000000	0.009670
3628.000000	0.010094
3626.000000	0.010528
3624.000000	0.010852
3622.000000	0.011061
3620.000000	0.011177
3618.000000	0.011195
3616.000000	0.011091
3614.000000	0.010921
3612.000000	0.010732
3610.000000	0.010549
3608.000000	0.010485
3606.000000	0.010578
3604.000000	0.010729
3602.000000	0.010919
3600.000000	0.011209
3598.000000	0.011567
3596.000000	0.011901
3594.000000	0.012148
3592.000000	0.012221
3590.000000	0.012109
3588.000000	0.011952
3586.000000	0.011851
3584.000000	0.011740
3582.000000	0.011609
3580.000000	0.011532
3578.000000	0.011562
3576.000000	0.011758
3574.000000	0.012142
3572.000000	0.012587
3570.000000	0.012937
3568.000000	0.013184
3566.000000	0.013348
3564.000000	0.013367
3562.000000	0.013254
3560.000000	0.013052
3558.000000	0.012783
3556.000000	0.012500
3554.000000	0.012309
3552.000000	0.012229
3550.000000	0.012229
3548.000000	0.012344
3546.000000	0.012597
3544.000000	0.012965
3542.000000	0.013386
3540.000000	0.013796
3538.000000	0.014164
3536.000000	0.014486
3534.000000	0.014757
3532.000000	0.014966
3530.000000	0.015133
3528.000000	0.015245
3526.000000	0.015328
3524.000000	0.015469
3522.000000	0.015675
3520.000000	0.015889
3518.000000	0.016139
3516.000000	0.016451
3514.000000	0.016780
3512.000000	0.017123
3510.000000	0.017477
3508.000000	0.017753
3506.000000	0.017912
3504.000000	0.018022
3502.000000	0.018139
3500.000000	0.018221
3498.000000	0.018241
3496.000000	0.018182
3494.000000	0.018034
3492.000000	0.017835
3490.000000	0.017610
3488.000000	0.017337
3486.000000	0.016989
3484.000000	0.016605
3482.000000	0.016236
3480.000000	0.015915
3478.000000	0.015686
3476.000000	0.015587
3474.000000	0.015624
3472.000000	0.015789
3470.000000	0.016085
3468.000000	0.016452
3466.000000	0.016813
3464.000000	0.017175
3462.000000	0.017555
3460.000000	0.017895
3458.000000	0.018129
3456.000000	0.018242
3454.000000	0.018258
3452.000000	0.018249
3450.000000	0.018299
3448.000000	0.018439
3446.000000	0.018633
3444.000000	0.018816
3442.000000	0.018966
3440.000000	0.019107
3438.000000	0.019243
3436.000000	0.019336
3434.000000	0.019346
3432.000000	0.019262
3430.000000	0.019097
3428.000000	0.018908
3426.000000	0.018764
3424.000000	0.018703
3422.000000	0.018749
3420.000000	0.018923
3418.000000	0.019222
3416.000000	0.019577
3414.000000	0.019911
3412.000000	0.020215
3410.000000	0.020490
3408.000000	0.020712
3406.000000	0.020862
3404.000000	0.020919
3402.000000	0.020860
3400.000000	0.020736
3398.000000	0.020648
3396.000000	0.020624
3394.000000	0.020624
3392.000000	0.020631
3390.000000	0.020644
3388.000000	0.020635
3386.000000	0.020593
3384.000000	0.020527
3382.000000	0.020429
3380.000000	0.020307
3378.000000	0.020201
3376.000000	0.020103
3374.000000	0.019986
3372.000000	0.019885
3370.000000	0.019855
3368.000000	0.019916
3366.000000	0.020069
3364.000000	0.020277
3362.000000	0.020453
3360.000000	0.020576
3358.000000	0.020720
3356.000000	0.020886
3354.000000	0.020967
3352.000000	0.020884
3350.000000	0.020611
3348.000000	0.020181
3346.000000	0.019715
3344.000000	0.019302
3342.000000	0.018901
3340.000000	0.018500
3338.000000	0.018179
3336.000000	0.017985
3334.000000	0.017946
3332.000000	0.018085
3330.000000	0.018314
3328.000000	0.018522
3326.000000	0.018683
3324.000000	0.018814
3322.000000	0.018929
3320.000000	0.019022
3318.000000	0.019061
3316.000000	0.019015
3314.000000	0.018919
3312.000000	0.018805
3310.000000	0.018685
3308.000000	0.018599
3306.000000	0.018557
3304.000000	0.018530
3302.000000	0.018514
3300.000000	0.018530
3298.000000	0.018566
3296.000000	0.018584
3294.000000	0.018583
3292.000000	0.018571
3290.000000	0.018536
3288.000000	0.018509
3286.000000	0.018515
3284.000000	0.018523
3282.000000	0.018510
3280.000000	0.018515
3278.000000	0.018581
3276.000000	0.018697
3274.000000	0.018829
3272.000000	0.018941
3270.000000	0.018999
3268.000000	0.019011
3266.000000	0.019022
3264.000000	0.019049
3262.000000	0.019092
3260.000000	0.019167
3258.000000	0.019259
3256.000000	0.019333
3254.000000	0.019389
3252.000000	0.019452
3250.000000	0.019533
3248.000000	0.019596
3246.000000	0.019594
3244.000000	0.019521
3242.000000	0.019409
3240.000000	0.019302
3238.000000	0.019238
3236.000000	0.019211
3234.000000	0.019185
3232.000000	0.019173
3230.000000	0.019213
3228.000000	0.019317
3226.000000	0.019477
3224.000000	0.019654
3222.000000	0.019812
3220.000000	0.019931
3218.000000	0.019972
3216.000000	0.019933
3214.000000	0.019863
3212.000000	0.019771
3210.000000	0.019626
3208.000000	0.019423
3206.000000	0.019177
3204.000000	0.018950
3202.000000	0.018839
3200.000000	0.018869
3198.000000	0.018997
3196.000000	0.019179
3194.000000	0.019398
3192.000000	0.019637
3190.000000	0.019883
3188.000000	0.020112
3186.000000	0.020245
3184.000000	0.020221
3182.000000	0.020075
3180.000000	0.019861
3178.000000	0.019592
3176.000000	0.019318
3174.000000	0.019072
3172.000000	0.018827
3170.000000	0.018607
3168.000000	0.018480
3166.000000	0.018413
3164.000000	0.018321
3162.000000	0.018226
3160.000000	0.018189
3158.000000	0.018193
3156.000000	0.018212
3154.000000	0.018240
3152.000000	0.018248
3150.000000	0.018248
3148.000000	0.018295
3146.000000	0.018380
3144.000000	0.018450
3142.000000	0.018487
3140.000000	0.018507
3138.000000	0.018530
3136.000000	0.018570
3134.000000	0.018620
3132.000000	0.018642
3130.000000	0.018613
3128.000000	0.018551
3126.000000	0.018476
3124.000000	0.018382
3122.000000	0.018253
3120.000000	0.018102
3118.000000	0.017968
3116.000000	0.017891
3114.000000	0.017902
3112.000000	0.017997
3110.000000	0.018161
3108.000000	0.018387
3106.000000	0.018658
3104.000000	0.018946
3102.000000	0.019201
3100.000000	0.019388
3098.000000	0.019521
3096.000000	0.019603
3094.000000	0.019600
3092.000000	0.019516
3090.000000	0.019415
3088.000000	0.019354
3086.000000	0.019347
3084.000000	0.019370
3082.000000	0.019393
3080.000000	0.019413
3078.000000	0.019460
3076.000000	0.019539
3074.000000	0.019603
3072.000000	0.019616
3070.000000	0.019587
3068.000000	0.019544
3066.000000	0.019529
3064.000000	0.019544
3062.000000	0.019561
3060.000000	0.019588
3058.000000	0.019649
3056.000000	0.019758
3054.000000	0.019931
3052.000000	0.020156
3050.000000	0.020399
3048.000000	0.020666
3046.000000	0.021000
3044.000000	0.021396
3042.000000	0.021796
3040.000000	0.022157
3038.000000	0.022446
3036.000000	0.022651
3034.000000	0.022803
3032.000000	0.022910
3030.000000	0.022925
3028.000000	0.022833
3026.000000	0.022690
3024.000000	0.022562
3022.000000	0.022478
3020.000000	0.022470
3018.000000	0.022554
3016.000000	0.022696
3014.000000	0.022896
3012.000000	0.023187
3010.000000	0.023540
3008.000000	0.023922
3006.000000	0.024324
3004.000000	0.024717
3002.000000	0.025066
3000.000000	0.025372
2998.000000	0.025656
2996.000000	0.025903
2994.000000	0.026119
2992.000000	0.026349
2990.000000	0.026604
2988.000000	0.026858
2986.000000	0.027110
2984.000000	0.027385
2982.000000	0.027681
2980.000000	0.027934
2978.000000	0.028099
2976.000000	0.028177
2974.000000	0.028177
2972.000000	0.028122
2970.000000	0.028031
2968.000000	0.027907
2966.000000	0.027767
2964.000000	0.027656
2962.000000	0.027667
2960.000000	0.027840
2958.000000	0.028106
2956.000000	0.028416
2954.000000	0.028777
2952.000000	0.029175
2950.000000	0.029553
2948.000000	0.029890
2946.000000	0.030172
2944.000000	0.030353
2942.000000	0.030443
2940.000000	0.030491
2938.000000	0.030501
2936.000000	0.030490
2934.000000	0.030510
2932.000000	0.030559
2930.000000	0.030588
2928.000000	0.030583
2926.000000	0.030547
2924.000000	0.030467
2922.000000	0.030314
2920.000000	0.030075
2918.000000	0.029761
2916.000000	0.029415
2914.000000	0.029119
2912.000000	0.028927
2910.000000	0.028836
2908.000000	0.028828
2906.000000	0.028930
2904.000000	0.029158
2902.000000	0.029444
2900.000000	0.029708
2898.000000	0.029907
2896.000000	0.029998
2894.000000	0.029982
2892.000000	0.029917
2890.000000	0.029821
2888.000000	0.029676
2886.000000	0.029514
2884.000000	0.029409
2882.000000	0.029367
2880.000000	0.029349
2878.000000	0.029368
2876.000000	0.029437
2874.000000	0.029525
2872.000000	0.029611
2870.000000	0.029695
2868.000000	0.029788
2866.000000	0.029904
2864.000000	0.030083
2862.000000	0.030335
2860.000000	0.030596
2858.000000	0.030814
2856.000000	0.031003
2854.000000	0.031176
2852.000000	0.031299
2850.000000	0.031326
2848.000000	0.031232
2846.000000	0.031021
2844.000000	0.030738
2842.000000	0.030444
2840.000000	0.030157
2838.000000	0.029865
2836.000000	0.029573
2834.000000	0.029309
2832.000000	0.029108
2830.000000	0.028993
2828.000000	0.028953
2826.000000	0.028963
2824.000000	0.029017
2822.000000	0.029092
2820.000000	0.029163
2818.000000	0.029214
2816.000000	0.029219
2814.000000	0.029178
2812.000000	0.029134
2810.000000	0.029089
2808.000000	0.029007
2806.000000	0.028906
2804.000000	0.028836
2802.000000	0.028823
2800.000000	0.028865
2798.000000	0.028921
2796.000000	0.028932
2794.000000	0.028890
2792.000000	0.028814
2790.000000	0.028708
2788.000000	0.028577
2786.000000	0.028427
2784.000000	0.028247
2782.000000	0.028047
2780.000000	0.027863
2778.000000	0.027721
2776.000000	0.027622
2774.000000	0.027562
2772.000000	0.027522
2770.000000	0.027489
2768.000000	0.027466
2766.000000	0.027463
2764.000000	0.027475
2762.000000	0.027444
2760.000000	0.027313
2758.000000	0.027115
2756.000000	0.026915
2754.000000	0.026722
2752.000000	0.026516
2750.000000	0.026295
2748.000000	0.026073
2746.000000	0.025895
2744.000000	0.025808
2742.000000	0.025803
2740.000000	0.025829
2738.000000	0.025870
2736.000000	0.025932
2734.000000	0.026027
2732.000000	0.026152
2730.000000	0.026285
2728.000000	0.026400
2726.000000	0.026462
2724.000000	0.026438
2722.000000	0.026327
2720.000000	0.026149
2718.000000	0.025934
2716.000000	0.025691
2714.000000	0.025396
2712.000000	0.025036
2710.000000	0.024657
2708.000000	0.024317
2706.000000	0.024032
2704.000000	0.023797
2702.000000	0.023579
2700.000000	0.023336
2698.000000	0.023096
2696.000000	0.022911
2694.000000	0.022781
2692.000000	0.022686
2690.000000	0.022624
2688.000000	0.022596
2686.000000	0.022610
2684.000000	0.022689
2682.000000	0.022837
2680.000000	0.023037
2678.000000	0.023278
2676.000000	0.023525
2674.000000	0.023741
2672.000000	0.023942
2670.000000	0.024151
2668.000000	0.024345
2666.000000	0.024491
2664.000000	0.024570
2662.000000	0.024563
2660.000000	0.024491
2658.000000	0.024418
2656.000000	0.024364
2654.000000	0.024271
2652.000000	0.024111
2650.000000	0.023937
2648.000000	0.023806
2646.000000	0.023737
2644.000000	0.023728
2642.000000	0.023742
2640.000000	0.023729
2638.000000	0.023683
2636.000000	0.023656
2634.000000	0.023674
2632.000000	0.023686
2630.000000	0.023645
2628.000000	0.023560
2626.000000	0.023488
2624.000000	0.023477
2622.000000	0.023538
2620.000000	0.023652
2618.000000	0.023772
2616.000000	0.023872
2614.000000	0.023979
2612.000000	0.024089
2610.000000	0.024150
2608.000000	0.024123
2606.000000	0.024010
2604.000000	0.023836
2602.000000	0.023636
2600.000000	0.023443
2598.000000	0.023264
2596.000000	0.023103
2594.000000	0.022992
2592.000000	0.022948
2590.000000	0.022957
2588.000000	0.023017
2586.000000	0.023113
2584.000000	0.023229
2582.000000	0.023361
2580.000000	0.023501
2578.000000	0.023643
2576.000000	0.023774
2574.000000	0.023890
2572.000000	0.023991
2570.000000	0.024055
2568.000000	0.024058
2566.000000	0.024003
2564.000000	0.023895
2562.000000	0.023741
2560.000000	0.023561
2558.000000	0.023339
2556.000000	0.023049
2554.000000	0.022719
2552.000000	0.022403
2550.000000	0.022133
2548.000000	0.021885
2546.000000	0.021639
2544.000000	0.021398
2542.000000	0.021175
2540.000000	0.020980
2538.000000	0.020811
2536.000000	0.020652
2534.000000	0.020471
2532.000000	0.020263
2530.000000	0.020055
2528.000000	0.019880
2526.000000	0.019773
2524.000000	0.019753
2522.000000	0.019793
2520.000000	0.019852
2518.000000	0.019938
2516.000000	0.020084
2514.000000	0.020297
2512.000000	0.020531
2510.000000	0.020706
2508.000000	0.020808
2506.000000	0.020898
2504.000000	0.021021
2502.000000	0.021142
2500.000000	0.021199
2498.000000	0.021149
2496.000000	0.020979
2494.000000	0.020715
2492.000000	0.020364
2490.000000	0.019886
2488.000000	0.019263
2486.000000	0.018543
2484.000000	0.017792
2482.000000	0.017054
2480.000000	0.016366
2478.000000	0.015757
2476.000000	0.015228
2474.000000	0.014799
2472.000000	0.014468
2470.000000	0.014181
2468.000000	0.013895
2466.000000	0.013606
2464.000000	0.013319
2462.000000	0.013011
2460.000000	0.012671
2458.000000	0.012311
2456.000000	0.011942
2454.000000	0.011597
2452.000000	0.011325
2450.000000	0.011126
2448.000000	0.010980
2446.000000	0.010894
2444.000000	0.010879
2442.000000	0.010909
2440.000000	0.010944
2438.000000	0.010968
2436.000000	0.010962
2434.000000	0.010897
2432.000000	0.010749
2430.000000	0.010510
2428.000000	0.010173
2426.000000	0.009740
2424.000000	0.009267
2422.000000	0.008825
2420.000000	0.008426
2418.000000	0.008054
2416.000000	0.007723
2414.000000	0.007459
2412.000000	0.007275
2410.000000	0.007163
2408.000000	0.007093
2406.000000	0.007017
2404.000000	0.006889
2402.000000	0.006700
2400.000000	0.006482
2398.000000	0.006250
2396.000000	0.006001
2394.000000	0.005735
2392.000000	0.005457
2390.000000	0.005157
2388.000000	0.004841
2386.000000	0.004506
2384.000000	0.004142
2382.000000	0.003740
2380.000000	0.003288
2378.000000	0.002799
2376.000000	0.002306
2374.000000	0.001826
2372.000000	0.001393
2370.000000	0.001080
2368.000000	0.000905
2366.000000	0.000799
2364.000000	0.000768
2362.000000	0.000845
2360.000000	0.000982
2358.000000	0.001095
2356.000000	0.001149
2354.000000	0.001143
2352.000000	0.001034
2350.000000	0.000816
2348.000000	0.000485
2346.000000	0.000000
2344.000000	-0.000594
2342.000000	-0.001155
2340.000000	-0.001635
2338.000000	-0.002091
2336.000000	-0.002490
2334.000000	-0.002742
2332.000000	-0.002839
2330.000000	-0.002777
2328.000000	-0.002522
2326.000000	-0.002149
2324.000000	-0.001779
2322.000000	-0.001446
2320.000000	-0.001138
2318.000000	-0.000895
2316.000000	-0.000730
2314.000000	-0.000620
2312.000000	-0.000613
2310.000000	-0.000745
2308.000000	-0.000960
2306.000000	-0.001202
2304.000000	-0.001476
2302.000000	-0.001772
2300.000000	-0.002080
2298.000000	-0.002405
2296.000000	-0.002714
2294.000000	-0.002970
2292.000000	-0.003146
2290.000000	-0.003213
2288.000000	-0.003183
2286.000000	-0.003104
2284.000000	-0.003006
2282.000000	-0.002919
2280.000000	-0.002868
2278.000000	-0.002839
2276.000000	-0.002841
2274.000000	-0.002926
2272.000000	-0.003107
2270.000000	-0.003341
2268.000000	-0.003578
2266.000000	-0.003799
2264.000000	-0.004005
2262.000000	-0.004214
2260.000000	-0.004436
2258.000000	-0.004663
2256.000000	-0.004896
2254.000000	-0.005147
2252.000000	-0.005415
2250.000000	-0.005670
2248.000000	-0.005888
2246.000000	-0.006070
2244.000000	-0.006218
2242.000000	-0.006314
2240.000000	-0.006333
2238.000000	-0.006260
2236.000000	-0.006120
2234.000000	-0.005970
2232.000000	-0.005848
2230.000000	-0.005735
2228.000000	-0.005615
2226.000000	-0.005514
2224.000000	-0.005445
2222.000000	-0.005411
2220.000000	-0.005423
2218.000000	-0.005477
2216.000000	-0.005536
2214.000000	-0.005596
2212.000000	-0.005668
2210.000000	-0.005737
2208.000000	-0.005799
2206.000000	-0.005871
2204.000000	-0.005947
2202.000000	-0.006001
2200.000000	-0.006022
2198.000000	-0.005999
2196.000000	-0.005928
2194.000000	-0.005848
2192.000000	-0.005804
2190.000000	-0.005794
2188.000000	-0.005783
2186.000000	-0.005752
2184.000000	-0.005701
2182.000000	-0.005659
2180.000000	-0.005670
2178.000000	-0.005708
2176.000000	-0.005695
2174.000000	-0.005595
2172.000000	-0.005424
2170.000000	-0.005237
2168.000000	-0.005085
2166.000000	-0.004972
2164.000000	-0.004873
2162.000000	-0.004779
2160.000000	-0.004712
2158.000000	-0.004680
2156.000000	-0.004676
2154.000000	-0.004699
2152.000000	-0.004733
2150.000000	-0.004739
2148.000000	-0.004696
2146.000000	-0.004614
2144.000000	-0.004510
2142.000000	-0.004410
2140.000000	-0.004342
2138.000000	-0.004288
2136.000000	-0.004218
2134.000000	-0.004158
2132.000000	-0.004148
2130.000000	-0.004194
2128.000000	-0.004277
2126.000000	-0.004368
2124.000000	-0.004431
2122.000000	-0.004463
2120.000000	-0.004504
2118.000000	-0.004574
2116.000000	-0.004635
2114.000000	-0.004648
2112.000000	-0.004606
2110.000000	-0.004520
2108.000000	-0.004415
2106.000000	-0.004323
2104.000000	-0.004230
2102.000000	-0.004096
2100.000000	-0.003933
2098.000000	-0.003792
2096.000000	-0.003704
2094.000000	-0.003667
2092.000000	-0.003656
2090.000000	-0.003628
2088.000000	-0.003567
2086.000000	-0.003503
2084.000000	-0.003458
2082.000000	-0.003413
2080.000000	-0.003331
2078.000000	-0.003173
2076.000000	-0.002944
2074.000000	-0.002699
2072.000000	-0.002490
2070.000000	-0.002318
2068.000000	-0.002153
2066.000000	-0.001976
2064.000000	-0.001811
2062.000000	-0.001708
2060.000000	-0.001677
2058.000000	-0.001687
2056.000000	-0.001701
2054.000000	-0.001682
2052.000000	-0.001618
2050.000000	-0.001516
2048.000000	-0.001381
2046.000000	-0.001218
2044.000000	-0.001046
2042.000000	-0.000876
2040.000000	-0.000720
2038.000000	-0.000614
2036.000000	-0.000579
2034.000000	-0.000584
2032.000000	-0.000594
2030.000000	-0.000594
2028.000000	-0.000581
2026.000000	-0.000564
2024.000000	-0.000546
2022.000000	-0.000510
2020.000000	-0.000448
2018.000000	-0.000381
2016.000000	-0.000352
2014.000000	-0.000383
2012.000000	-0.000446
2010.000000	-0.000483
2008.000000	-0.000466
2006.000000	-0.000412
2004.000000	-0.000335
2002.000000	-0.000222
2000.000000	-0.000072
1998.000000	0.000086
1996.000000	0.000256
1994.000000	0.000437
1992.000000	0.000617
1990.000000	0.000796
1988.000000	0.000981
1986.000000	0.001167
1984.000000	0.001347
1982.000000	0.001533
1980.000000	0.001725
1978.000000	0.001895
1976.000000	0.002031
1974.000000	0.002118
1972.000000	0.002144
1970.000000	0.002113
1968.000000	0.002028
1966.000000	0.001887
1964.000000	0.001710
1962.000000	0.001531
1960.000000	0.001361
1958.000000	0.001225
1956.000000	0.001159
1954.000000	0.001157
1952.000000	0.001202
1950.000000	0.001302
1948.000000	0.001460
1946.000000	0.001661
1944.000000	0.001882
1942.000000	0.002072
1940.000000	0.002196
1938.000000	0.002288
1936.000000	0.002387
1934.000000	0.002498
1932.000000	0.002623
1930.000000	0.002768
1928.000000	0.002933
1926.000000	0.003128
1924.000000	0.003350
1922.000000	0.003556
1920.000000	0.003717
1918.000000	0.003840
1916.000000	0.003926
1914.000000	0.003963
1912.000000	0.003950
1910.000000	0.003904
1908.000000	0.003854
1906.000000	0.003823
1904.000000	0.003821
1902.000000	0.003837
1900.000000	0.003868
1898.000000	0.003921
1896.000000	0.003989
1894.000000	0.004054
1892.000000	0.004114
1890.000000	0.004167
1888.000000	0.004206
1886.000000	0.004241
1884.000000	0.004286
1882.000000	0.004361
1880.000000	0.004481
1878.000000	0.004642
1876.000000	0.004832
1874.000000	0.005057
1872.000000	0.005335
1870.000000	0.005663
1868.000000	0.006018
1866.000000	0.006341
1864.000000	0.006609
1862.000000	0.006865
1860.000000	0.007162
1858.000000	0.007495
1856.000000	0.007825
1854.000000	0.008149
1852.000000	0.008487
1850.000000	0.008865
1848.000000	0.009298
1846.000000	0.009747
1844.000000	0.010134
1842.000000	0.010425
1840.000000	0.010677
1838.000000	0.010917
1836.000000	0.011119
1834.000000	0.011258
1832.000000	0.011338
1830.000000	0.011378
1828.000000	0.011399
1826.000000	0.011420
1824.000000	0.011448
1822.000000	0.011484
1820.000000	0.011540
1818.000000	0.011638
1816.000000	0.011802
1814.000000	0.012037
1812.000000	0.012334
1810.000000	0.012687
1808.000000	0.013084
1806.000000	0.013487
1804.000000	0.013836
1802.000000	0.014085
1800.000000	0.014206
1798.000000	0.014189
1796.000000	0.014053
1794.000000	0.013811
1792.000000	0.013472
1790.000000	0.013093
1788.000000	0.012764
1786.000000	0.012549
1784.000000	0.012463
1782.000000	0.012489
1780.000000	0.012581
1778.000000	0.012701
1776.000000	0.012849
1774.000000	0.012995
1772.000000	0.013059
1770.000000	0.012982
1768.000000	0.012796
1766.000000	0.012563
1764.000000	0.012338
1762.000000	0.012156
1760.000000	0.012026
1758.000000	0.011951
1756.000000	0.011943
1754.000000	0.012022
1752.000000	0.012174
1750.000000	0.012354
1748.000000	0.012504
1746.000000	0.012592
1744.000000	0.012624
1742.000000	0.012603
1740.000000	0.012542
1738.000000	0.012455
1736.000000	0.012356
1734.000000	0.012277
1732.000000	0.012229
1730.000000	0.012217
1728.000000	0.012259
1726.000000	0.012385
1724.000000	0.012596
1722.000000	0.012867
1720.000000	0.013174
1718.000000	0.013474
1716.000000	0.013698
1714.000000	0.013877
1712.000000	0.014106
1710.000000	0.014358
1708.000000	0.014580
1706.000000	0.014768
1704.000000	0.014929
1702.000000	0.015103
1700.000000	0.015355
1698.000000	0.015618
1696.000000	0.015729
1694.000000	0.015702
1692.000000	0.015640
1690.000000	0.015603
1688.000000	0.015615
1686.000000	0.015664
1684.000000	0.015719
1682.000000	0.015772
1680.000000	0.015897
1678.000000	0.016136
1676.000000	0.016458
1674.000000	0.016800
1672.000000	0.017097
1670.000000	0.017333
1668.000000	0.017542
1666.000000	0.017795
1664.000000	0.018124
1662.000000	0.018512
1660.000000	0.018928
1658.000000	0.019374
1656.000000	0.019874
1654.000000	0.020435
1652.000000	0.021012
1650.000000	0.021537
1648.000000	0.022011
1646.000000	0.022430
1644.000000	0.022810
1642.000000	0.023183
1640.000000	0.023573
1638.000000	0.023996
1636.000000	0.024484
1634.000000	0.025086
1632.000000	0.025807
1630.000000	0.026645
1628.000000	0.027600
1626.000000	0.028650
1624.000000	0.029770
1622.000000	0.030962
1620.000000	0.032236
1618.000000	0.033587
1616.000000	0.035006
1614.000000	0.036531
1612.000000	0.038239
1610.000000	0.040166
1608.000000	0.042322
1606.000000	0.044720
1604.000000	0.047365
1602.000000	0.050226
1600.000000	0.053267
1598.000000	0.056432
1596.000000	0.059638
1594.000000	0.062816
1592.000000	0.065947
1590.000000	0.069004
1588.000000	0.071924
1586.000000	0.074672
1584.000000	0.077245
1582.000000	0.079646
1580.000000	0.081891
1578.000000	0.083987
1576.000000	0.085918
1574.000000	0.087664
1572.000000	0.089282
1570.000000	0.090808
1568.000000	0.092243
1566.000000	0.093574
1564.000000	0.094782
1562.000000	0.095866
1560.000000	0.096875
1558.000000	0.097854
1556.000000	0.098756
1554.000000	0.099588
1552.000000	0.100347
1550.000000	0.101066
1548.000000	0.101795
1546.000000	0.102572
1544.000000	0.103383
1542.000000	0.104165
1540.000000	0.104858
1538.000000	0.105470
1536.000000	0.106105
1534.000000	0.106789
1532.000000	0.107498
1530.000000	0.108205
1528.000000	0.108903
1526.000000	0.109600
1524.000000	0.110340
1522.000000	0.111151
1520.000000	0.111956
1518.000000	0.112708
1516.000000	0.113379
1514.000000	0.113947
1512.000000	0.114434
1510.000000	0.114864
1508.000000	0.115227
1506.000000	0.115458
1504.000000	0.115547
1502.000000	0.115550
1500.000000	0.115476
1498.000000	0.115340
1496.000000	0.115164
1494.000000	0.114933
1492.000000	0.114622
1490.000000	0.114265
1488.000000	0.113913
1486.000000	0.113583
1484.000000	0.113274
1482.000000	0.112992
1480.000000	0.112741
1478.000000	0.112545
1476.000000	0.112450
1474.000000	0.112489
1472.000000	0.112624
1470.000000	0.112775
1468.000000	0.112942
1466.000000	0.113136
1464.000000	0.113345
1462.000000	0.113528
1460.000000	0.113650
1458.000000	0.113665
1456.000000	0.113538
1454.000000	0.113346
1452.000000	0.113161
1450.000000	0.113006
1448.000000	0.112887
1446.000000	0.112818
1444.000000	0.112831
1442.000000	0.112960
1440.000000	0.113226
1438.000000	0.113620
1436.000000	0.114112
1434.000000	0.114642
1432.000000	0.115191
1430.000000	0.115751
1428.000000	0.116283
1426.000000	0.116729
1424.000000	0.117046
1422.000000	0.117216
1420.000000	0.117247
1418.000000	0.117141
1416.000000	0.116872
1414.000000	0.116453
1412.000000	0.115924
1410.000000	0.115320
1408.000000	0.114662
1406.000000	0.113970
1404.000000	0.113260
1402.000000	0.112534
1400.000000	0.111798
1398.000000	0.111057
1396.000000	0.110341
1394.000000	0.109708
1392.000000	0.109239
1390.000000	0.109017
1388.000000	0.109071
1386.000000	0.109353
1384.000000	0.109837
1382.000000	0.110584
1380.000000	0.111628
1378.000000	0.112929
1376.000000	0.114400
1374.000000	0.115925
1372.000000	0.117400
1370.000000	0.118797
1368.000000	0.120110
1366.000000	0.121279
1364.000000	0.122233
1362.000000	0.122918
1360.000000	0.123316
1358.000000	0.123458
1356.000000	0.123401
1354.000000	0.123191
1352.000000	0.122845
1350.000000	0.122371
1348.000000	0.121785
1346.000000	0.121114
1344.000000	0.120383
1342.000000	0.119600
1340.000000	0.118751
1338.000000	0.117805
1336.000000	0.116760
1334.000000	0.115653
1332.000000	0.114512
1330.000000	0.113347
1328.000000	0.112168
1326.000000	0.110958
1324.000000	0.109711
1322.000000	0.108460
1320.000000	0.107235
1318.000000	0.106022
1316.000000	0.104805
1314.000000	0.103590
1312.000000	0.102390
1310.000000	0.101229
1308.000000	0.100127
1306.000000	0.099068
1304.000000	0.098032
1302.000000	0.097030
1300.000000	0.096094
1298.000000	0.095237
1296.000000	0.094445
1294.000000	0.093679
1292.000000	0.092921
1290.000000	0.092195
1288.000000	0.091532
1286.000000	0.090932
1284.000000	0.090372
1282.000000	0.089831
1280.000000	0.089321
1278.000000	0.088862
1276.000000	0.088469
1274.000000	0.088142
1272.000000	0.087868
1270.000000	0.087639
1268.000000	0.087459
1266.000000	0.087323
1264.000000	0.087200
1262.000000	0.087069
1260.000000	0.086939
1258.000000	0.086798
1256.000000	0.086631
1254.000000	0.086431
1252.000000	0.086183
1250.000000	0.085869
1248.000000	0.085509
1246.000000	0.085136
1244.000000	0.084754
1242.000000	0.084351
1240.000000	0.083927
1238.000000	0.083497
1236.000000	0.083089
1234.000000	0.082729
1232.000000	0.082412
1230.000000	0.082106
1228.000000	0.081788
1226.000000	0.081466
1224.000000	0.081167
1222.000000	0.080894
1220.000000	0.080624
1218.000000	0.080338
1216.000000	0.080050
1214.000000	0.079787
1212.000000	0.079568
1210.000000	0.079390
1208.000000	0.079234
1206.000000	0.079098
1204.000000	0.078982
1202.000000	0.078886
1200.000000	0.078801
1198.000000	0.078715
1196.000000	0.078616
1194.000000	0.078508
1192.000000	0.078388
1190.000000	0.078242
1188.000000	0.078069
1186.000000	0.077886
1184.000000	0.077707
1182.000000	0.077542
1180.000000	0.077393
1178.000000	0.077260
1176.000000	0.077152
1174.000000	0.077077
1172.000000	0.077020
1170.000000	0.076969
1168.000000	0.076925
1166.000000	0.076894
1164.000000	0.076878
1162.000000	0.076872
1160.000000	0.076879
1158.000000	0.076922
1156.000000	0.077033
1154.000000	0.077212
1152.000000	0.077443
1150.000000	0.077719
1148.000000	0.078037
1146.000000	0.078408
1144.000000	0.078844
1142.000000	0.079320
1140.000000	0.079793
1138.000000	0.080254
1136.000000	0.080715
1134.000000	0.081179
1132.000000	0.081643
1130.000000	0.082086
1128.000000	0.082483
1126.000000	0.082830
1124.000000	0.083123
1122.000000	0.083347
1120.000000	0.083501
1118.000000	0.083585
1116.000000	0.083580
1114.000000	0.083478
1112.000000	0.083288
1110.000000	0.083025
1108.000000	0.082736
1106.000000	0.082500
1104.000000	0.082361
1102.000000	0.082317
1100.000000	0.082361
1098.000000	0.082488
1096.000000	0.082685
1094.000000	0.082943
1092.000000	0.083240
1090.000000	0.083499
1088.000000	0.083618
1086.000000	0.083535
1084.000000	0.083256
1082.000000	0.082814
1080.000000	0.082250
1078.000000	0.081580
1076.000000	0.080792
1074.000000	0.079906
1072.000000	0.078982
1070.000000	0.078074
1068.000000	0.077206
1066.000000	0.076374
1064.000000	0.075552
1062.000000	0.074738
1060.000000	0.073961
1058.000000	0.073223
1056.000000	0.072489
1054.000000	0.071731
1052.000000	0.070932
1050.000000	0.070087
1048.000000	0.069227
1046.000000	0.068356
1044.000000	0.067448
1042.000000	0.066481
1040.000000	0.065456
1038.000000	0.064391
1036.000000	0.063302
1034.000000	0.062195
1032.000000	0.061062
1030.000000	0.059919
1028.000000	0.058797
1026.000000	0.057690
1024.000000	0.056599
1022.000000	0.055550
1020.000000	0.054551
1018.000000	0.053576
1016.000000	0.052613
1014.000000	0.051640
1012.000000	0.050605
1010.000000	0.049502
1008.000000	0.048373
1006.000000	0.047231
1004.000000	0.046056
1002.000000	0.044852
1000.000000	0.043632
998.000000	0.042399
996.000000	0.041176
994.000000	0.039962
992.000000	0.038731
990.000000	0.037487
988.000000	0.036252
986.000000	0.035033
984.000000	0.033839
982.000000	0.032680
980.000000	0.031560
978.000000	0.030490
976.000000	0.029497
974.000000	0.028560
972.000000	0.027622
970.000000	0.026660
968.000000	0.025658
966.000000	0.024604
964.000000	0.023510
962.000000	0.022372
960.000000	0.021171
958.000000	0.019915
956.000000	0.018650
954.000000	0.017433
952.000000	0.016286
950.000000	0.015207
948.000000	0.014202
946.000000	0.013272
944.000000	0.012407
942.000000	0.011602
940.000000	0.010863
938.000000	0.010151
936.000000	0.009415
934.000000	0.008640
932.000000	0.007818
930.000000	0.006954
928.000000	0.006084
926.000000	0.005233
924.000000	0.004377
922.000000	0.003495
920.000000	0.002640
918.000000	0.001868
916.000000	0.001187
914.000000	0.000594
912.000000	0.000105
910.000000	-0.000274
908.000000	-0.000567
906.000000	-0.000640
904.000000	-0.000510
902.000000	-0.000172
900.000000	0.000448
898.000000	0.001465
896.000000	0.002977
894.000000	0.005078
892.000000	0.007873
890.000000	0.011433
888.000000	0.015818
886.000000	0.021091
884.000000	0.027181
882.000000	0.033867
880.000000	0.040901
878.000000	0.048025
876.000000	0.054973
874.000000	0.061524
872.000000	0.067410
870.000000	0.072203
868.000000	0.075491
866.000000	0.077087
864.000000	0.077005
862.000000	0.075339
860.000000	0.072168
858.000000	0.067510
856.000000	0.061437
854.000000	0.054280
852.000000	0.046638
850.000000	0.039116
848.000000	0.032085
846.000000	0.025645
844.000000	0.019792
842.000000	0.014617
840.000000	0.010283
838.000000	0.006845
836.000000	0.004159
834.000000	0.001974
832.000000	0.000081
830.000000	-0.001613
828.000000	-0.003103
826.000000	-0.004337
824.000000	-0.005316
822.000000	-0.006082
820.000000	-0.006666
818.000000	-0.007101
816.000000	-0.007425
814.000000	-0.007646
812.000000	-0.007753
810.000000	-0.007786
808.000000	-0.007832
806.000000	-0.007977
804.000000	-0.008223
802.000000	-0.008495
800.000000	-0.008699
798.000000	-0.008777
796.000000	-0.008692
794.000000	-0.008390
792.000000	-0.007870
790.000000	-0.007158
788.000000	-0.006273
786.000000	-0.005295
784.000000	-0.004333
782.000000	-0.003423
780.000000	-0.002598
778.000000	-0.001904
776.000000	-0.001261
774.000000	-0.000548
772.000000	0.000791
770.000000	0.001803
768.000000	0.003048
766.000000	0.004524
764.000000	0.006169
762.000000	0.007952
760.000000	0.009852
758.000000	0.011790
756.000000	0.013732
754.000000	0.015586
752.000000	0.017150
750.000000	0.018391
748.000000	0.019515
746.000000	0.020595
744.000000	0.021483
742.000000	0.022074
740.000000	0.022426
738.000000	0.022701
736.000000	0.023203
734.000000	0.024221
732.000000	0.025638
730.000000	0.027182
728.000000	0.028875
726.000000	0.030852
724.000000	0.033092
722.000000	0.035565
720.000000	0.038304
718.000000	0.041320
716.000000	0.044581
714.000000	0.048307
712.000000	0.052813
710.000000	0.058523
708.000000	0.065756
706.000000	0.074518
704.000000	0.084699
702.000000	0.095476
700.000000	0.106290
