PE IR       SUBTECH     SPECTRUM    ASCII       PEDS        4.00        
   -1
LC_10_unfl.asc
14/09/17
10:57:44.00
14/09/26
09:47:08.00
nystrom.12
Co-added spectrum 1 at -136, -569 (Image Marker 1)
700.000000
#HDR
-1
-1
#GR
cm-1
A
1.0
0.0
4000.000000
-2.000000
1651
8
0.047819
-0.114609
#DATA
4000.000000	0.018620
3998.000000	0.018698
3996.000000	0.018799
3994.000000	0.018836
3992.000000	0.018729
3990.000000	0.018511
3988.000000	0.018247
3986.000000	0.017982
3984.000000	0.017732
3982.000000	0.017434
3980.000000	0.017062
3978.000000	0.016703
3976.000000	0.016467
3974.000000	0.016357
3972.000000	0.016305
3970.000000	0.016271
3968.000000	0.016253
3966.000000	0.016302
3964.000000	0.016485
3962.000000	0.016806
3960.000000	0.017204
3958.000000	0.017601
3956.000000	0.017955
3954.000000	0.018289
3952.000000	0.018612
3950.000000	0.018862
3948.000000	0.018966
3946.000000	0.018885
3944.000000	0.018637
3942.000000	0.018294
3940.000000	0.017944
3938.000000	0.017613
3936.000000	0.017299
3934.000000	0.017048
3932.000000	0.016909
3930.000000	0.016904
3928.000000	0.017027
3926.000000	0.017254
3924.000000	0.017557
3922.000000	0.017923
3920.000000	0.018330
3918.000000	0.018717
3916.000000	0.019032
3914.000000	0.019232
3912.000000	0.019323
3910.000000	0.019376
3908.000000	0.019415
3906.000000	0.019369
3904.000000	0.019197
3902.000000	0.018987
3900.000000	0.018868
3898.000000	0.018870
3896.000000	0.018985
3894.000000	0.019161
3892.000000	0.019307
3890.000000	0.019438
3888.000000	0.019692
3886.000000	0.020122
3884.000000	0.020608
3882.000000	0.020994
3880.000000	0.021246
3878.000000	0.021419
3876.000000	0.021619
3874.000000	0.021894
3872.000000	0.022134
3870.000000	0.022167
3868.000000	0.021965
3866.000000	0.021691
3864.000000	0.021459
3862.000000	0.021278
3860.000000	0.021146
3858.000000	0.020997
3856.000000	0.020794
3854.000000	0.020636
3852.000000	0.020698
3850.000000	0.020945
3848.000000	0.021265
3846.000000	0.021620
3844.000000	0.021958
3842.000000	0.022243
3840.000000	0.022520
3838.000000	0.022857
3836.000000	0.023236
3834.000000	0.023601
3832.000000	0.023924
3830.000000	0.024166
3828.000000	0.024319
3826.000000	0.024431
3824.000000	0.024545
3822.000000	0.024617
3820.000000	0.024535
3818.000000	0.024240
3816.000000	0.023770
3814.000000	0.023208
3812.000000	0.022714
3810.000000	0.022333
3808.000000	0.021961
3806.000000	0.021523
3804.000000	0.021088
3802.000000	0.020717
3800.000000	0.020401
3798.000000	0.020105
3796.000000	0.019727
3794.000000	0.019235
3792.000000	0.018716
3790.000000	0.018232
3788.000000	0.017776
3786.000000	0.017326
3784.000000	0.016901
3782.000000	0.016567
3780.000000	0.016364
3778.000000	0.016227
3776.000000	0.016094
3774.000000	0.016002
3772.000000	0.016012
3770.000000	0.016180
3768.000000	0.016514
3766.000000	0.016954
3764.000000	0.017452
3762.000000	0.018015
3760.000000	0.018671
3758.000000	0.019358
3756.000000	0.019944
3754.000000	0.020348
3752.000000	0.020589
3750.000000	0.020738
3748.000000	0.020871
3746.000000	0.021005
3744.000000	0.021078
3742.000000	0.021177
3740.000000	0.021468
3738.000000	0.021938
3736.000000	0.022451
3734.000000	0.022812
3732.000000	0.022866
3730.000000	0.022705
3728.000000	0.022447
3726.000000	0.022042
3724.000000	0.021344
3722.000000	0.020365
3720.000000	0.019259
3718.000000	0.018185
3716.000000	0.017275
3714.000000	0.016536
3712.000000	0.015887
3710.000000	0.015322
3708.000000	0.014883
3706.000000	0.014577
3704.000000	0.014443
3702.000000	0.014482
3700.000000	0.014572
3698.000000	0.014622
3696.000000	0.014651
3694.000000	0.014691
3692.000000	0.014795
3690.000000	0.014989
3688.000000	0.015144
3686.000000	0.015111
3684.000000	0.014933
3682.000000	0.014702
3680.000000	0.014488
3678.000000	0.014309
3676.000000	0.014083
3674.000000	0.013727
3672.000000	0.013368
3670.000000	0.013128
3668.000000	0.013002
3666.000000	0.013007
3664.000000	0.013177
3662.000000	0.013453
3660.000000	0.013791
3658.000000	0.014211
3656.000000	0.014653
3654.000000	0.015000
3652.000000	0.015210
3650.000000	0.015257
3648.000000	0.015034
3646.000000	0.014484
3644.000000	0.013778
3642.000000	0.013021
3640.000000	0.012240
3638.000000	0.011491
3636.000000	0.010838
3634.000000	0.010343
3632.000000	0.010092
3630.000000	0.010134
3628.000000	0.010381
3626.000000	0.010687
3624.000000	0.011025
3622.000000	0.011395
3620.000000	0.011801
3618.000000	0.012226
3616.000000	0.012599
3614.000000	0.012862
3612.000000	0.012999
3610.000000	0.013045
3608.000000	0.013072
3606.000000	0.013155
3604.000000	0.013256
3602.000000	0.013285
3600.000000	0.013230
3598.000000	0.013133
3596.000000	0.013035
3594.000000	0.012952
3592.000000	0.012874
3590.000000	0.012758
3588.000000	0.012593
3586.000000	0.012426
3584.000000	0.012247
3582.000000	0.012028
3580.000000	0.011801
3578.000000	0.011586
3576.000000	0.011376
3574.000000	0.011184
3572.000000	0.011034
3570.000000	0.010910
3568.000000	0.010809
3566.000000	0.010737
3564.000000	0.010663
3562.000000	0.010619
3560.000000	0.010633
3558.000000	0.010672
3556.000000	0.010697
3554.000000	0.010700
3552.000000	0.010685
3550.000000	0.010667
3548.000000	0.010711
3546.000000	0.010801
3544.000000	0.010818
3542.000000	0.010726
3540.000000	0.010611
3538.000000	0.010533
3536.000000	0.010504
3534.000000	0.010494
3532.000000	0.010438
3530.000000	0.010303
3528.000000	0.010143
3526.000000	0.010041
3524.000000	0.009975
3522.000000	0.009867
3520.000000	0.009700
3518.000000	0.009529
3516.000000	0.009413
3514.000000	0.009387
3512.000000	0.009441
3510.000000	0.009502
3508.000000	0.009530
3506.000000	0.009575
3504.000000	0.009666
3502.000000	0.009746
3500.000000	0.009791
3498.000000	0.009818
3496.000000	0.009813
3494.000000	0.009804
3492.000000	0.009837
3490.000000	0.009898
3488.000000	0.009967
3486.000000	0.010055
3484.000000	0.010177
3482.000000	0.010338
3480.000000	0.010521
3478.000000	0.010674
3476.000000	0.010768
3474.000000	0.010796
3472.000000	0.010740
3470.000000	0.010573
3468.000000	0.010295
3466.000000	0.009934
3464.000000	0.009533
3462.000000	0.009118
3460.000000	0.008699
3458.000000	0.008301
3456.000000	0.007985
3454.000000	0.007811
3452.000000	0.007755
3450.000000	0.007750
3448.000000	0.007786
3446.000000	0.007898
3444.000000	0.008067
3442.000000	0.008231
3440.000000	0.008353
3438.000000	0.008418
3436.000000	0.008435
3434.000000	0.008425
3432.000000	0.008373
3430.000000	0.008230
3428.000000	0.008021
3426.000000	0.007855
3424.000000	0.007801
3422.000000	0.007849
3420.000000	0.007959
3418.000000	0.008117
3416.000000	0.008345
3414.000000	0.008661
3412.000000	0.009037
3410.000000	0.009379
3408.000000	0.009598
3406.000000	0.009690
3404.000000	0.009713
3402.000000	0.009702
3400.000000	0.009677
3398.000000	0.009653
3396.000000	0.009617
3394.000000	0.009548
3392.000000	0.009466
3390.000000	0.009415
3388.000000	0.009406
3386.000000	0.009417
3384.000000	0.009402
3382.000000	0.009337
3380.000000	0.009247
3378.000000	0.009175
3376.000000	0.009175
3374.000000	0.009261
3372.000000	0.009366
3370.000000	0.009456
3368.000000	0.009560
3366.000000	0.009670
3364.000000	0.009739
3362.000000	0.009773
3360.000000	0.009765
3358.000000	0.009660
3356.000000	0.009477
3354.000000	0.009262
3352.000000	0.009006
3350.000000	0.008709
3348.000000	0.008402
3346.000000	0.008093
3344.000000	0.007797
3342.000000	0.007562
3340.000000	0.007411
3338.000000	0.007312
3336.000000	0.007237
3334.000000	0.007196
3332.000000	0.007183
3330.000000	0.007207
3328.000000	0.007253
3326.000000	0.007276
3324.000000	0.007262
3322.000000	0.007205
3320.000000	0.007106
3318.000000	0.007015
3316.000000	0.006970
3314.000000	0.006943
3312.000000	0.006907
3310.000000	0.006888
3308.000000	0.006897
3306.000000	0.006927
3304.000000	0.006971
3302.000000	0.006994
3300.000000	0.006977
3298.000000	0.006951
3296.000000	0.006935
3294.000000	0.006907
3292.000000	0.006841
3290.000000	0.006780
3288.000000	0.006782
3286.000000	0.006853
3284.000000	0.006975
3282.000000	0.007122
3280.000000	0.007265
3278.000000	0.007389
3276.000000	0.007486
3274.000000	0.007530
3272.000000	0.007467
3270.000000	0.007288
3268.000000	0.007031
3266.000000	0.006741
3264.000000	0.006431
3262.000000	0.006117
3260.000000	0.005853
3258.000000	0.005655
3256.000000	0.005501
3254.000000	0.005400
3252.000000	0.005361
3250.000000	0.005359
3248.000000	0.005392
3246.000000	0.005447
3244.000000	0.005487
3242.000000	0.005532
3240.000000	0.005633
3238.000000	0.005803
3236.000000	0.006024
3234.000000	0.006264
3232.000000	0.006505
3230.000000	0.006764
3228.000000	0.007039
3226.000000	0.007285
3224.000000	0.007469
3222.000000	0.007587
3220.000000	0.007629
3218.000000	0.007617
3216.000000	0.007586
3214.000000	0.007545
3212.000000	0.007518
3210.000000	0.007520
3208.000000	0.007542
3206.000000	0.007574
3204.000000	0.007628
3202.000000	0.007725
3200.000000	0.007831
3198.000000	0.007896
3196.000000	0.007914
3194.000000	0.007902
3192.000000	0.007869
3190.000000	0.007839
3188.000000	0.007854
3186.000000	0.007894
3184.000000	0.007935
3182.000000	0.007990
3180.000000	0.008051
3178.000000	0.008118
3176.000000	0.008192
3174.000000	0.008239
3172.000000	0.008200
3170.000000	0.008067
3168.000000	0.007874
3166.000000	0.007644
3164.000000	0.007405
3162.000000	0.007168
3160.000000	0.006942
3158.000000	0.006776
3156.000000	0.006719
3154.000000	0.006777
3152.000000	0.006924
3150.000000	0.007136
3148.000000	0.007402
3146.000000	0.007724
3144.000000	0.008081
3142.000000	0.008441
3140.000000	0.008776
3138.000000	0.009057
3136.000000	0.009284
3134.000000	0.009481
3132.000000	0.009656
3130.000000	0.009806
3128.000000	0.009925
3126.000000	0.010012
3124.000000	0.010076
3122.000000	0.010122
3120.000000	0.010134
3118.000000	0.010113
3116.000000	0.010096
3114.000000	0.010088
3112.000000	0.010070
3110.000000	0.010060
3108.000000	0.010082
3106.000000	0.010138
3104.000000	0.010229
3102.000000	0.010362
3100.000000	0.010500
3098.000000	0.010618
3096.000000	0.010735
3094.000000	0.010864
3092.000000	0.010998
3090.000000	0.011127
3088.000000	0.011259
3086.000000	0.011417
3084.000000	0.011611
3082.000000	0.011864
3080.000000	0.012168
3078.000000	0.012489
3076.000000	0.012814
3074.000000	0.013121
3072.000000	0.013401
3070.000000	0.013658
3068.000000	0.013890
3066.000000	0.014107
3064.000000	0.014311
3062.000000	0.014486
3060.000000	0.014636
3058.000000	0.014797
3056.000000	0.014994
3054.000000	0.015203
3052.000000	0.015373
3050.000000	0.015475
3048.000000	0.015527
3046.000000	0.015558
3044.000000	0.015574
3042.000000	0.015551
3040.000000	0.015454
3038.000000	0.015291
3036.000000	0.015136
3034.000000	0.015040
3032.000000	0.014992
3030.000000	0.014941
3028.000000	0.014861
3026.000000	0.014790
3024.000000	0.014741
3022.000000	0.014721
3020.000000	0.014746
3018.000000	0.014778
3016.000000	0.014767
3014.000000	0.014713
3012.000000	0.014668
3010.000000	0.014670
3008.000000	0.014733
3006.000000	0.014885
3004.000000	0.015104
3002.000000	0.015321
3000.000000	0.015535
2998.000000	0.015800
2996.000000	0.016132
2994.000000	0.016495
2992.000000	0.016858
2990.000000	0.017161
2988.000000	0.017362
2986.000000	0.017495
2984.000000	0.017623
2982.000000	0.017765
2980.000000	0.017907
2978.000000	0.018052
2976.000000	0.018194
2974.000000	0.018349
2972.000000	0.018547
2970.000000	0.018810
2968.000000	0.019144
2966.000000	0.019502
2964.000000	0.019813
2962.000000	0.020017
2960.000000	0.020114
2958.000000	0.020149
2956.000000	0.020159
2954.000000	0.020130
2952.000000	0.020014
2950.000000	0.019810
2948.000000	0.019584
2946.000000	0.019401
2944.000000	0.019294
2942.000000	0.019271
2940.000000	0.019306
2938.000000	0.019403
2936.000000	0.019598
2934.000000	0.019890
2932.000000	0.020247
2930.000000	0.020643
2928.000000	0.021038
2926.000000	0.021380
2924.000000	0.021626
2922.000000	0.021738
2920.000000	0.021698
2918.000000	0.021537
2916.000000	0.021302
2914.000000	0.020991
2912.000000	0.020561
2910.000000	0.020034
2908.000000	0.019507
2906.000000	0.019052
2904.000000	0.018685
2902.000000	0.018361
2900.000000	0.018034
2898.000000	0.017734
2896.000000	0.017533
2894.000000	0.017444
2892.000000	0.017418
2890.000000	0.017406
2888.000000	0.017386
2886.000000	0.017363
2884.000000	0.017354
2882.000000	0.017329
2880.000000	0.017249
2878.000000	0.017103
2876.000000	0.016902
2874.000000	0.016666
2872.000000	0.016418
2870.000000	0.016178
2868.000000	0.015962
2866.000000	0.015800
2864.000000	0.015723
2862.000000	0.015747
2860.000000	0.015860
2858.000000	0.016025
2856.000000	0.016223
2854.000000	0.016432
2852.000000	0.016604
2850.000000	0.016696
2848.000000	0.016697
2846.000000	0.016594
2844.000000	0.016377
2842.000000	0.016063
2840.000000	0.015677
2838.000000	0.015239
2836.000000	0.014811
2834.000000	0.014440
2832.000000	0.014098
2830.000000	0.013763
2828.000000	0.013471
2826.000000	0.013235
2824.000000	0.013012
2822.000000	0.012767
2820.000000	0.012499
2818.000000	0.012217
2816.000000	0.011951
2814.000000	0.011712
2812.000000	0.011473
2810.000000	0.011238
2808.000000	0.011036
2806.000000	0.010881
2804.000000	0.010783
2802.000000	0.010731
2800.000000	0.010682
2798.000000	0.010613
2796.000000	0.010545
2794.000000	0.010482
2792.000000	0.010397
2790.000000	0.010291
2788.000000	0.010161
2786.000000	0.009977
2784.000000	0.009726
2782.000000	0.009409
2780.000000	0.009035
2778.000000	0.008643
2776.000000	0.008268
2774.000000	0.007898
2772.000000	0.007520
2770.000000	0.007177
2768.000000	0.006920
2766.000000	0.006774
2764.000000	0.006724
2762.000000	0.006711
2760.000000	0.006687
2758.000000	0.006644
2756.000000	0.006595
2754.000000	0.006519
2752.000000	0.006366
2750.000000	0.006120
2748.000000	0.005829
2746.000000	0.005570
2744.000000	0.005355
2742.000000	0.005144
2740.000000	0.004947
2738.000000	0.004811
2736.000000	0.004758
2734.000000	0.004786
2732.000000	0.004860
2730.000000	0.004909
2728.000000	0.004906
2726.000000	0.004905
2724.000000	0.004936
2722.000000	0.004948
2720.000000	0.004891
2718.000000	0.004762
2716.000000	0.004571
2714.000000	0.004351
2712.000000	0.004145
2710.000000	0.003952
2708.000000	0.003738
2706.000000	0.003507
2704.000000	0.003308
2702.000000	0.003161
2700.000000	0.003062
2698.000000	0.003004
2696.000000	0.002965
2694.000000	0.002924
2692.000000	0.002893
2690.000000	0.002895
2688.000000	0.002933
2686.000000	0.003010
2684.000000	0.003109
2682.000000	0.003195
2680.000000	0.003241
2678.000000	0.003240
2676.000000	0.003188
2674.000000	0.003079
2672.000000	0.002911
2670.000000	0.002673
2668.000000	0.002362
2666.000000	0.002016
2664.000000	0.001693
2662.000000	0.001426
2660.000000	0.001204
2658.000000	0.001009
2656.000000	0.000843
2654.000000	0.000708
2652.000000	0.000617
2650.000000	0.000562
2648.000000	0.000495
2646.000000	0.000397
2644.000000	0.000282
2642.000000	0.000150
2640.000000	-0.000011
2638.000000	-0.000196
2636.000000	-0.000403
2634.000000	-0.000625
2632.000000	-0.000858
2630.000000	-0.001121
2628.000000	-0.001413
2626.000000	-0.001699
2624.000000	-0.001949
2622.000000	-0.002174
2620.000000	-0.002398
2618.000000	-0.002618
2616.000000	-0.002810
2614.000000	-0.002966
2612.000000	-0.003091
2610.000000	-0.003188
2608.000000	-0.003270
2606.000000	-0.003337
2604.000000	-0.003363
2602.000000	-0.003351
2600.000000	-0.003321
2598.000000	-0.003267
2596.000000	-0.003188
2594.000000	-0.003090
2592.000000	-0.002987
2590.000000	-0.002903
2588.000000	-0.002875
2586.000000	-0.002919
2584.000000	-0.003021
2582.000000	-0.003160
2580.000000	-0.003308
2578.000000	-0.003460
2576.000000	-0.003628
2574.000000	-0.003806
2572.000000	-0.003977
2570.000000	-0.004125
2568.000000	-0.004246
2566.000000	-0.004355
2564.000000	-0.004470
2562.000000	-0.004621
2560.000000	-0.004826
2558.000000	-0.005084
2556.000000	-0.005392
2554.000000	-0.005749
2552.000000	-0.006131
2550.000000	-0.006511
2548.000000	-0.006893
2546.000000	-0.007306
2544.000000	-0.007720
2542.000000	-0.008082
2540.000000	-0.008365
2538.000000	-0.008565
2536.000000	-0.008700
2534.000000	-0.008823
2532.000000	-0.008966
2530.000000	-0.009079
2528.000000	-0.009123
2526.000000	-0.009128
2524.000000	-0.009154
2522.000000	-0.009246
2520.000000	-0.009384
2518.000000	-0.009501
2516.000000	-0.009555
2514.000000	-0.009559
2512.000000	-0.009561
2510.000000	-0.009580
2508.000000	-0.009583
2506.000000	-0.009532
2504.000000	-0.009443
2502.000000	-0.009386
2500.000000	-0.009418
2498.000000	-0.009547
2496.000000	-0.009746
2494.000000	-0.010010
2492.000000	-0.010367
2490.000000	-0.010831
2488.000000	-0.011406
2486.000000	-0.012071
2484.000000	-0.012777
2482.000000	-0.013472
2480.000000	-0.014125
2478.000000	-0.014723
2476.000000	-0.015244
2474.000000	-0.015680
2472.000000	-0.016028
2470.000000	-0.016273
2468.000000	-0.016407
2466.000000	-0.016463
2464.000000	-0.016508
2462.000000	-0.016585
2460.000000	-0.016713
2458.000000	-0.016903
2456.000000	-0.017144
2454.000000	-0.017421
2452.000000	-0.017747
2450.000000	-0.018135
2448.000000	-0.018576
2446.000000	-0.019040
2444.000000	-0.019507
2442.000000	-0.019958
2440.000000	-0.020373
2438.000000	-0.020744
2436.000000	-0.021065
2434.000000	-0.021327
2432.000000	-0.021493
2430.000000	-0.021533
2428.000000	-0.021463
2426.000000	-0.021318
2424.000000	-0.021135
2422.000000	-0.020941
2420.000000	-0.020744
2418.000000	-0.020561
2416.000000	-0.020425
2414.000000	-0.020357
2412.000000	-0.020358
2410.000000	-0.020409
2408.000000	-0.020478
2406.000000	-0.020557
2404.000000	-0.020671
2402.000000	-0.020815
2400.000000	-0.020948
2398.000000	-0.021058
2396.000000	-0.021164
2394.000000	-0.021264
2392.000000	-0.021346
2390.000000	-0.021407
2388.000000	-0.021456
2386.000000	-0.021525
2384.000000	-0.021650
2382.000000	-0.021851
2380.000000	-0.022135
2378.000000	-0.022479
2376.000000	-0.022811
2374.000000	-0.023098
2372.000000	-0.023344
2370.000000	-0.023476
2368.000000	-0.023461
2366.000000	-0.023358
2364.000000	-0.023156
2362.000000	-0.022800
2360.000000	-0.022394
2358.000000	-0.022129
2356.000000	-0.021991
2354.000000	-0.021929
2352.000000	-0.022012
2350.000000	-0.022236
2348.000000	-0.022527
2346.000000	-0.022868
2344.000000	-0.023299
2342.000000	-0.023821
2340.000000	-0.024347
2338.000000	-0.024845
2336.000000	-0.025286
2334.000000	-0.025594
2332.000000	-0.025797
2330.000000	-0.025979
2328.000000	-0.026149
2326.000000	-0.026261
2324.000000	-0.026320
2322.000000	-0.026422
2320.000000	-0.026605
2318.000000	-0.026820
2316.000000	-0.027030
2314.000000	-0.027217
2312.000000	-0.027355
2310.000000	-0.027444
2308.000000	-0.027506
2306.000000	-0.027520
2304.000000	-0.027466
2302.000000	-0.027395
2300.000000	-0.027367
2298.000000	-0.027391
2296.000000	-0.027443
2294.000000	-0.027510
2292.000000	-0.027584
2290.000000	-0.027669
2288.000000	-0.027761
2286.000000	-0.027847
2284.000000	-0.027932
2282.000000	-0.028036
2280.000000	-0.028180
2278.000000	-0.028370
2276.000000	-0.028598
2274.000000	-0.028839
2272.000000	-0.029071
2270.000000	-0.029289
2268.000000	-0.029482
2266.000000	-0.029616
2264.000000	-0.029669
2262.000000	-0.029647
2260.000000	-0.029576
2258.000000	-0.029492
2256.000000	-0.029408
2254.000000	-0.029310
2252.000000	-0.029199
2250.000000	-0.029107
2248.000000	-0.029054
2246.000000	-0.029058
2244.000000	-0.029094
2242.000000	-0.029121
2240.000000	-0.029138
2238.000000	-0.029186
2236.000000	-0.029287
2234.000000	-0.029411
2232.000000	-0.029537
2230.000000	-0.029665
2228.000000	-0.029785
2226.000000	-0.029902
2224.000000	-0.030041
2222.000000	-0.030206
2220.000000	-0.030371
2218.000000	-0.030516
2216.000000	-0.030636
2214.000000	-0.030735
2212.000000	-0.030842
2210.000000	-0.030979
2208.000000	-0.031111
2206.000000	-0.031196
2204.000000	-0.031241
2202.000000	-0.031286
2200.000000	-0.031358
2198.000000	-0.031458
2196.000000	-0.031569
2194.000000	-0.031686
2192.000000	-0.031820
2190.000000	-0.031981
2188.000000	-0.032147
2186.000000	-0.032282
2184.000000	-0.032384
2182.000000	-0.032460
2180.000000	-0.032517
2178.000000	-0.032561
2176.000000	-0.032586
2174.000000	-0.032606
2172.000000	-0.032651
2170.000000	-0.032743
2168.000000	-0.032886
2166.000000	-0.033064
2164.000000	-0.033240
2162.000000	-0.033387
2160.000000	-0.033503
2158.000000	-0.033596
2156.000000	-0.033663
2154.000000	-0.033708
2152.000000	-0.033734
2150.000000	-0.033728
2148.000000	-0.033698
2146.000000	-0.033674
2144.000000	-0.033674
2142.000000	-0.033695
2140.000000	-0.033723
2138.000000	-0.033752
2136.000000	-0.033784
2134.000000	-0.033822
2132.000000	-0.033860
2130.000000	-0.033901
2128.000000	-0.033954
2126.000000	-0.034005
2124.000000	-0.034036
2122.000000	-0.034042
2120.000000	-0.034011
2118.000000	-0.033954
2116.000000	-0.033906
2114.000000	-0.033883
2112.000000	-0.033871
2110.000000	-0.033867
2108.000000	-0.033873
2106.000000	-0.033872
2104.000000	-0.033872
2102.000000	-0.033898
2100.000000	-0.033943
2098.000000	-0.033984
2096.000000	-0.034019
2094.000000	-0.034050
2092.000000	-0.034089
2090.000000	-0.034152
2088.000000	-0.034248
2086.000000	-0.034371
2084.000000	-0.034500
2082.000000	-0.034624
2080.000000	-0.034733
2078.000000	-0.034811
2076.000000	-0.034863
2074.000000	-0.034895
2072.000000	-0.034902
2070.000000	-0.034881
2068.000000	-0.034844
2066.000000	-0.034816
2064.000000	-0.034816
2062.000000	-0.034828
2060.000000	-0.034814
2058.000000	-0.034757
2056.000000	-0.034675
2054.000000	-0.034599
2052.000000	-0.034528
2050.000000	-0.034425
2048.000000	-0.034269
2046.000000	-0.034098
2044.000000	-0.033967
2042.000000	-0.033898
2040.000000	-0.033872
2038.000000	-0.033852
2036.000000	-0.033821
2034.000000	-0.033811
2032.000000	-0.033834
2030.000000	-0.033861
2028.000000	-0.033867
2026.000000	-0.033858
2024.000000	-0.033844
2022.000000	-0.033841
2020.000000	-0.033848
2018.000000	-0.033831
2016.000000	-0.033784
2014.000000	-0.033767
2012.000000	-0.033809
2010.000000	-0.033872
2008.000000	-0.033903
2006.000000	-0.033877
2004.000000	-0.033807
2002.000000	-0.033737
2000.000000	-0.033672
1998.000000	-0.033568
1996.000000	-0.033384
1994.000000	-0.033147
1992.000000	-0.032937
1990.000000	-0.032820
1988.000000	-0.032773
1986.000000	-0.032744
1984.000000	-0.032731
1982.000000	-0.032757
1980.000000	-0.032820
1978.000000	-0.032902
1976.000000	-0.032968
1974.000000	-0.032967
1972.000000	-0.032898
1970.000000	-0.032817
1968.000000	-0.032745
1966.000000	-0.032683
1964.000000	-0.032635
1962.000000	-0.032597
1960.000000	-0.032568
1958.000000	-0.032544
1956.000000	-0.032518
1954.000000	-0.032488
1952.000000	-0.032450
1950.000000	-0.032380
1948.000000	-0.032257
1946.000000	-0.032108
1944.000000	-0.031968
1942.000000	-0.031855
1940.000000	-0.031784
1938.000000	-0.031730
1936.000000	-0.031652
1934.000000	-0.031549
1932.000000	-0.031469
1930.000000	-0.031442
1928.000000	-0.031461
1926.000000	-0.031495
1924.000000	-0.031507
1922.000000	-0.031500
1920.000000	-0.031512
1918.000000	-0.031558
1916.000000	-0.031626
1914.000000	-0.031674
1912.000000	-0.031660
1910.000000	-0.031589
1908.000000	-0.031494
1906.000000	-0.031372
1904.000000	-0.031209
1902.000000	-0.031016
1900.000000	-0.030794
1898.000000	-0.030531
1896.000000	-0.030241
1894.000000	-0.029949
1892.000000	-0.029684
1890.000000	-0.029486
1888.000000	-0.029376
1886.000000	-0.029288
1884.000000	-0.029180
1882.000000	-0.029079
1880.000000	-0.029026
1878.000000	-0.029016
1876.000000	-0.029003
1874.000000	-0.028944
1872.000000	-0.028831
1870.000000	-0.028698
1868.000000	-0.028610
1866.000000	-0.028569
1864.000000	-0.028501
1862.000000	-0.028367
1860.000000	-0.028176
1858.000000	-0.027942
1856.000000	-0.027664
1854.000000	-0.027357
1852.000000	-0.027029
1850.000000	-0.026669
1848.000000	-0.026300
1846.000000	-0.025954
1844.000000	-0.025656
1842.000000	-0.025430
1840.000000	-0.025265
1838.000000	-0.025125
1836.000000	-0.025007
1834.000000	-0.024915
1832.000000	-0.024842
1830.000000	-0.024806
1828.000000	-0.024818
1826.000000	-0.024824
1824.000000	-0.024811
1822.000000	-0.024811
1820.000000	-0.024809
1818.000000	-0.024775
1816.000000	-0.024695
1814.000000	-0.024546
1812.000000	-0.024323
1810.000000	-0.024073
1808.000000	-0.023822
1806.000000	-0.023533
1804.000000	-0.023211
1802.000000	-0.022909
1800.000000	-0.022679
1798.000000	-0.022560
1796.000000	-0.022536
1794.000000	-0.022564
1792.000000	-0.022624
1790.000000	-0.022727
1788.000000	-0.022837
1786.000000	-0.022918
1784.000000	-0.022976
1782.000000	-0.023019
1780.000000	-0.023038
1778.000000	-0.023027
1776.000000	-0.022988
1774.000000	-0.022945
1772.000000	-0.022951
1770.000000	-0.023031
1768.000000	-0.023104
1766.000000	-0.023107
1764.000000	-0.023045
1762.000000	-0.022945
1760.000000	-0.022825
1758.000000	-0.022667
1756.000000	-0.022464
1754.000000	-0.022221
1752.000000	-0.021951
1750.000000	-0.021666
1748.000000	-0.021366
1746.000000	-0.021084
1744.000000	-0.020858
1742.000000	-0.020710
1740.000000	-0.020634
1738.000000	-0.020618
1736.000000	-0.020660
1734.000000	-0.020768
1732.000000	-0.020977
1730.000000	-0.021256
1728.000000	-0.021555
1726.000000	-0.021819
1724.000000	-0.022017
1722.000000	-0.022142
1720.000000	-0.022171
1718.000000	-0.022103
1716.000000	-0.021980
1714.000000	-0.021834
1712.000000	-0.021627
1710.000000	-0.021353
1708.000000	-0.021045
1706.000000	-0.020721
1704.000000	-0.020417
1702.000000	-0.020164
1700.000000	-0.019918
1698.000000	-0.019633
1696.000000	-0.019346
1694.000000	-0.019085
1692.000000	-0.018818
1690.000000	-0.018525
1688.000000	-0.018216
1686.000000	-0.017900
1684.000000	-0.017601
1682.000000	-0.017395
1680.000000	-0.017288
1678.000000	-0.017239
1676.000000	-0.017243
1674.000000	-0.017332
1672.000000	-0.017477
1670.000000	-0.017606
1668.000000	-0.017705
1666.000000	-0.017705
1664.000000	-0.017517
1662.000000	-0.017143
1660.000000	-0.016657
1658.000000	-0.016100
1656.000000	-0.015490
1654.000000	-0.014865
1652.000000	-0.014277
1650.000000	-0.013733
1648.000000	-0.013272
1646.000000	-0.012981
1644.000000	-0.012846
1642.000000	-0.012734
1640.000000	-0.012557
1638.000000	-0.012298
1636.000000	-0.012014
1634.000000	-0.011775
1632.000000	-0.011491
1630.000000	-0.011075
1628.000000	-0.010513
1626.000000	-0.009837
1624.000000	-0.009107
1622.000000	-0.008383
1620.000000	-0.007634
1618.000000	-0.006796
1616.000000	-0.005908
1614.000000	-0.005027
1612.000000	-0.004118
1610.000000	-0.003171
1608.000000	-0.002225
1606.000000	-0.001272
1604.000000	-0.000271
1602.000000	0.000786
1600.000000	0.001905
1598.000000	0.003098
1596.000000	0.004348
1594.000000	0.005636
1592.000000	0.006986
1590.000000	0.008406
1588.000000	0.009849
1586.000000	0.011291
1584.000000	0.012728
1582.000000	0.014137
1580.000000	0.015498
1578.000000	0.016796
1576.000000	0.017994
1574.000000	0.019077
1572.000000	0.020138
1570.000000	0.021200
1568.000000	0.022224
1566.000000	0.023196
1564.000000	0.024131
1562.000000	0.025045
1560.000000	0.025990
1558.000000	0.027009
1556.000000	0.028094
1554.000000	0.029248
1552.000000	0.030440
1550.000000	0.031686
1548.000000	0.032993
1546.000000	0.034344
1544.000000	0.035692
1542.000000	0.036960
1540.000000	0.038038
1538.000000	0.038878
1536.000000	0.039624
1534.000000	0.040312
1532.000000	0.040910
1530.000000	0.041433
1528.000000	0.041946
1526.000000	0.042506
1524.000000	0.043184
1522.000000	0.043977
1520.000000	0.044732
1518.000000	0.045401
1516.000000	0.046013
1514.000000	0.046598
1512.000000	0.047144
1510.000000	0.047579
1508.000000	0.047819
1506.000000	0.047765
1504.000000	0.047552
1502.000000	0.047323
1500.000000	0.047037
1498.000000	0.046636
1496.000000	0.046102
1494.000000	0.045475
1492.000000	0.044812
1490.000000	0.044153
1488.000000	0.043454
1486.000000	0.042656
1484.000000	0.041793
1482.000000	0.040927
1480.000000	0.040085
1478.000000	0.039271
1476.000000	0.038497
1474.000000	0.037801
1472.000000	0.037234
1470.000000	0.036842
1468.000000	0.036636
1466.000000	0.036575
1464.000000	0.036611
1462.000000	0.036728
1460.000000	0.036923
1458.000000	0.037146
1456.000000	0.037264
1454.000000	0.037227
1452.000000	0.037114
1450.000000	0.036976
1448.000000	0.036827
1446.000000	0.036653
1444.000000	0.036457
1442.000000	0.036271
1440.000000	0.036167
1438.000000	0.036205
1436.000000	0.036338
1434.000000	0.036484
1432.000000	0.036642
1430.000000	0.036816
1428.000000	0.036988
1426.000000	0.037148
1424.000000	0.037285
1422.000000	0.037365
1420.000000	0.037357
1418.000000	0.037231
1416.000000	0.036955
1414.000000	0.036552
1412.000000	0.036037
1410.000000	0.035394
1408.000000	0.034599
1406.000000	0.033661
1404.000000	0.032623
1402.000000	0.031564
1400.000000	0.030544
1398.000000	0.029574
1396.000000	0.028682
1394.000000	0.027917
1392.000000	0.027327
1390.000000	0.026919
1388.000000	0.026624
1386.000000	0.026327
1384.000000	0.025959
1382.000000	0.025503
1380.000000	0.024936
1378.000000	0.024209
1376.000000	0.023272
1374.000000	0.022099
1372.000000	0.020732
1370.000000	0.019249
1368.000000	0.017704
1366.000000	0.016140
1364.000000	0.014581
1362.000000	0.013023
1360.000000	0.011478
1358.000000	0.010004
1356.000000	0.008656
1354.000000	0.007454
1352.000000	0.006388
1350.000000	0.005424
1348.000000	0.004535
1346.000000	0.003736
1344.000000	0.003048
1342.000000	0.002460
1340.000000	0.001915
1338.000000	0.001344
1336.000000	0.000752
1334.000000	0.000202
1332.000000	-0.000272
1330.000000	-0.000678
1328.000000	-0.001042
1326.000000	-0.001384
1324.000000	-0.001693
1322.000000	-0.001939
1320.000000	-0.002126
1318.000000	-0.002299
1316.000000	-0.002502
1314.000000	-0.002733
1312.000000	-0.002979
1310.000000	-0.003239
1308.000000	-0.003516
1306.000000	-0.003810
1304.000000	-0.004133
1302.000000	-0.004487
1300.000000	-0.004848
1298.000000	-0.005204
1296.000000	-0.005559
1294.000000	-0.005907
1292.000000	-0.006240
1290.000000	-0.006553
1288.000000	-0.006836
1286.000000	-0.007074
1284.000000	-0.007271
1282.000000	-0.007439
1280.000000	-0.007588
1278.000000	-0.007731
1276.000000	-0.007875
1274.000000	-0.008016
1272.000000	-0.008165
1270.000000	-0.008336
1268.000000	-0.008521
1266.000000	-0.008710
1264.000000	-0.008908
1262.000000	-0.009112
1260.000000	-0.009315
1258.000000	-0.009521
1256.000000	-0.009740
1254.000000	-0.009974
1252.000000	-0.010230
1250.000000	-0.010517
1248.000000	-0.010840
1246.000000	-0.011201
1244.000000	-0.011591
1242.000000	-0.012005
1240.000000	-0.012428
1238.000000	-0.012839
1236.000000	-0.013233
1234.000000	-0.013607
1232.000000	-0.013951
1230.000000	-0.014251
1228.000000	-0.014513
1226.000000	-0.014749
1224.000000	-0.014967
1222.000000	-0.015171
1220.000000	-0.015375
1218.000000	-0.015597
1216.000000	-0.015850
1214.000000	-0.016127
1212.000000	-0.016424
1210.000000	-0.016746
1208.000000	-0.017095
1206.000000	-0.017482
1204.000000	-0.017907
1202.000000	-0.018341
1200.000000	-0.018751
1198.000000	-0.019136
1196.000000	-0.019536
1194.000000	-0.019973
1192.000000	-0.020432
1190.000000	-0.020892
1188.000000	-0.021342
1186.000000	-0.021802
1184.000000	-0.022302
1182.000000	-0.022854
1180.000000	-0.023440
1178.000000	-0.024036
1176.000000	-0.024636
1174.000000	-0.025242
1172.000000	-0.025855
1170.000000	-0.026465
1168.000000	-0.027062
1166.000000	-0.027639
1164.000000	-0.028178
1162.000000	-0.028670
1160.000000	-0.029123
1158.000000	-0.029529
1156.000000	-0.029879
1154.000000	-0.030186
1152.000000	-0.030456
1150.000000	-0.030685
1148.000000	-0.030881
1146.000000	-0.031041
1144.000000	-0.031151
1142.000000	-0.031225
1140.000000	-0.031294
1138.000000	-0.031352
1136.000000	-0.031380
1134.000000	-0.031362
1132.000000	-0.031290
1130.000000	-0.031177
1128.000000	-0.031054
1126.000000	-0.030936
1124.000000	-0.030822
1122.000000	-0.030732
1120.000000	-0.030694
1118.000000	-0.030712
1116.000000	-0.030798
1114.000000	-0.030959
1112.000000	-0.031198
1110.000000	-0.031510
1108.000000	-0.031865
1106.000000	-0.032205
1104.000000	-0.032473
1102.000000	-0.032663
1100.000000	-0.032822
1098.000000	-0.032993
1096.000000	-0.033180
1094.000000	-0.033365
1092.000000	-0.033565
1090.000000	-0.033845
1088.000000	-0.034296
1086.000000	-0.034964
1084.000000	-0.035814
1082.000000	-0.036776
1080.000000	-0.037807
1078.000000	-0.038886
1076.000000	-0.040002
1074.000000	-0.041136
1072.000000	-0.042250
1070.000000	-0.043295
1068.000000	-0.044255
1066.000000	-0.045146
1064.000000	-0.045981
1062.000000	-0.046785
1060.000000	-0.047586
1058.000000	-0.048389
1056.000000	-0.049180
1054.000000	-0.049967
1052.000000	-0.050777
1050.000000	-0.051628
1048.000000	-0.052531
1046.000000	-0.053501
1044.000000	-0.054538
1042.000000	-0.055643
1040.000000	-0.056830
1038.000000	-0.058093
1036.000000	-0.059415
1034.000000	-0.060773
1032.000000	-0.062144
1030.000000	-0.063511
1028.000000	-0.064871
1026.000000	-0.066216
1024.000000	-0.067540
1022.000000	-0.068850
1020.000000	-0.070151
1018.000000	-0.071463
1016.000000	-0.072818
1014.000000	-0.074216
1012.000000	-0.075628
1010.000000	-0.077045
1008.000000	-0.078466
1006.000000	-0.079873
1004.000000	-0.081273
1002.000000	-0.082678
1000.000000	-0.084056
998.000000	-0.085392
996.000000	-0.086706
994.000000	-0.087992
992.000000	-0.089220
990.000000	-0.090381
988.000000	-0.091479
986.000000	-0.092510
984.000000	-0.093476
982.000000	-0.094386
980.000000	-0.095257
978.000000	-0.096112
976.000000	-0.096957
974.000000	-0.097797
972.000000	-0.098645
970.000000	-0.099501
968.000000	-0.100360
966.000000	-0.101203
964.000000	-0.101991
962.000000	-0.102706
960.000000	-0.103386
958.000000	-0.104050
956.000000	-0.104669
954.000000	-0.105219
952.000000	-0.105696
950.000000	-0.106116
948.000000	-0.106520
946.000000	-0.106937
944.000000	-0.107338
942.000000	-0.107685
940.000000	-0.107981
938.000000	-0.108241
936.000000	-0.108475
934.000000	-0.108711
932.000000	-0.108953
930.000000	-0.109163
928.000000	-0.109323
926.000000	-0.109474
924.000000	-0.109651
922.000000	-0.109842
920.000000	-0.110040
918.000000	-0.110212
916.000000	-0.110313
914.000000	-0.110357
912.000000	-0.110365
910.000000	-0.110282
908.000000	-0.110058
906.000000	-0.109726
904.000000	-0.109337
902.000000	-0.108897
900.000000	-0.108380
898.000000	-0.107738
896.000000	-0.106928
894.000000	-0.105977
892.000000	-0.104931
890.000000	-0.103741
888.000000	-0.102308
886.000000	-0.100587
884.000000	-0.098603
882.000000	-0.096425
880.000000	-0.094166
878.000000	-0.091887
876.000000	-0.089575
874.000000	-0.087344
872.000000	-0.085473
870.000000	-0.084217
868.000000	-0.083704
866.000000	-0.083935
864.000000	-0.084869
862.000000	-0.086484
860.000000	-0.088757
858.000000	-0.091588
856.000000	-0.094676
854.000000	-0.097574
852.000000	-0.099981
850.000000	-0.101844
848.000000	-0.103205
846.000000	-0.104085
844.000000	-0.104480
842.000000	-0.104424
840.000000	-0.104074
838.000000	-0.103679
836.000000	-0.103421
834.000000	-0.103315
832.000000	-0.103294
830.000000	-0.103331
828.000000	-0.103443
826.000000	-0.103656
824.000000	-0.103918
822.000000	-0.104104
820.000000	-0.104160
818.000000	-0.104166
816.000000	-0.104211
814.000000	-0.104304
812.000000	-0.104427
810.000000	-0.104586
808.000000	-0.104802
806.000000	-0.105131
804.000000	-0.105616
802.000000	-0.106221
800.000000	-0.106878
798.000000	-0.107553
796.000000	-0.108242
794.000000	-0.108947
792.000000	-0.109639
790.000000	-0.110283
788.000000	-0.110867
786.000000	-0.111384
784.000000	-0.111868
782.000000	-0.112371
780.000000	-0.112896
778.000000	-0.113407
776.000000	-0.113862
774.000000	-0.114211
772.000000	-0.114427
770.000000	-0.114549
768.000000	-0.114609
766.000000	-0.114600
764.000000	-0.114493
762.000000	-0.114246
760.000000	-0.113903
758.000000	-0.113595
756.000000	-0.113383
754.000000	-0.113251
752.000000	-0.113180
750.000000	-0.113132
748.000000	-0.113106
746.000000	-0.113120
744.000000	-0.113132
742.000000	-0.113087
740.000000	-0.113033
738.000000	-0.112974
736.000000	-0.112724
734.000000	-0.112177
732.000000	-0.111383
730.000000	-0.110461
728.000000	-0.109453
726.000000	-0.108205
724.000000	-0.106550
722.000000	-0.104474
720.000000	-0.102126
718.000000	-0.099500
716.000000	-0.096307
714.000000	-0.092323
712.000000	-0.087305
710.000000	-0.081011
708.000000	-0.073600
706.000000	-0.065118
704.000000	-0.055404
702.000000	-0.044615
700.000000	-0.033498
