PE IR       SUBTECH     SPECTRUM    ASCII       PEDS        4.00        
   -1
LC_7.asc
14/09/17
10:57:44.00
14/09/25
10:37:23.00
nystrom.12
Co-added spectrum 1 at -64, -547 (Image Marker 1)
700.000000
#HDR
-1
-1
#GR
cm-1
A
1.0
0.0
4000.000000
-2.000000
1651
8
0.143795
-0.006829
#DATA
4000.000000	-0.002130
3998.000000	-0.001365
3996.000000	-0.000657
3994.000000	-0.000013
3992.000000	0.000377
3990.000000	0.000768
3988.000000	0.000999
3986.000000	0.001075
3984.000000	0.001044
3982.000000	0.001004
3980.000000	0.001020
3978.000000	0.001103
3976.000000	0.001221
3974.000000	0.001309
3972.000000	0.001406
3970.000000	0.001636
3968.000000	0.001990
3966.000000	0.002358
3964.000000	0.002683
3962.000000	0.002934
3960.000000	0.003097
3958.000000	0.003254
3956.000000	0.003486
3954.000000	0.003700
3952.000000	0.003799
3950.000000	0.003831
3948.000000	0.003861
3946.000000	0.003889
3944.000000	0.003952
3942.000000	0.004081
3940.000000	0.004195
3938.000000	0.004247
3936.000000	0.004280
3934.000000	0.004306
3932.000000	0.004342
3930.000000	0.004448
3928.000000	0.004619
3926.000000	0.004811
3924.000000	0.005044
3922.000000	0.005310
3920.000000	0.005619
3918.000000	0.006051
3916.000000	0.006579
3914.000000	0.007073
3912.000000	0.007444
3910.000000	0.007649
3908.000000	0.007709
3906.000000	0.007775
3904.000000	0.007933
3902.000000	0.008040
3900.000000	0.007992
3898.000000	0.007807
3896.000000	0.007525
3894.000000	0.007268
3892.000000	0.007099
3890.000000	0.006898
3888.000000	0.006528
3886.000000	0.006078
3884.000000	0.005682
3882.000000	0.005377
3880.000000	0.005183
3878.000000	0.005047
3876.000000	0.004897
3874.000000	0.004807
3872.000000	0.004844
3870.000000	0.004964
3868.000000	0.005180
3866.000000	0.005515
3864.000000	0.005975
3862.000000	0.006538
3860.000000	0.007095
3858.000000	0.007548
3856.000000	0.007858
3854.000000	0.008090
3852.000000	0.008233
3850.000000	0.008084
3848.000000	0.007664
3846.000000	0.007054
3844.000000	0.006389
3842.000000	0.005858
3840.000000	0.005577
3838.000000	0.005450
3836.000000	0.005262
3834.000000	0.005013
3832.000000	0.004818
3830.000000	0.004735
3828.000000	0.004758
3826.000000	0.004792
3824.000000	0.004708
3822.000000	0.004495
3820.000000	0.004322
3818.000000	0.004294
3816.000000	0.004452
3814.000000	0.004743
3812.000000	0.004975
3810.000000	0.005144
3808.000000	0.005334
3806.000000	0.005579
3804.000000	0.005864
3802.000000	0.006198
3800.000000	0.006540
3798.000000	0.006739
3796.000000	0.006854
3794.000000	0.006918
3792.000000	0.006883
3790.000000	0.006772
3788.000000	0.006586
3786.000000	0.006277
3784.000000	0.005839
3782.000000	0.005377
3780.000000	0.005020
3778.000000	0.004834
3776.000000	0.004746
3774.000000	0.004668
3772.000000	0.004589
3770.000000	0.004537
3768.000000	0.004526
3766.000000	0.004556
3764.000000	0.004594
3762.000000	0.004536
3760.000000	0.004446
3758.000000	0.004481
3756.000000	0.004623
3754.000000	0.004830
3752.000000	0.005156
3750.000000	0.005630
3748.000000	0.006117
3746.000000	0.006554
3744.000000	0.006920
3742.000000	0.007121
3740.000000	0.007177
3738.000000	0.007207
3736.000000	0.007256
3734.000000	0.007257
3732.000000	0.007090
3730.000000	0.006751
3728.000000	0.006331
3726.000000	0.005925
3724.000000	0.005591
3722.000000	0.005292
3720.000000	0.004904
3718.000000	0.004325
3716.000000	0.003606
3714.000000	0.002876
3712.000000	0.002221
3710.000000	0.001681
3708.000000	0.001163
3706.000000	0.000573
3704.000000	0.000000
3702.000000	-0.000446
3700.000000	-0.000595
3698.000000	-0.000464
3696.000000	-0.000187
3694.000000	0.000111
3692.000000	0.000379
3690.000000	0.000667
3688.000000	0.000966
3686.000000	0.001123
3684.000000	0.001107
3682.000000	0.000933
3680.000000	0.000603
3678.000000	0.000209
3676.000000	-0.000098
3674.000000	-0.000278
3672.000000	-0.000446
3670.000000	-0.000505
3668.000000	-0.000390
3666.000000	-0.000246
3664.000000	-0.000053
3662.000000	0.000279
3660.000000	0.000713
3658.000000	0.001177
3656.000000	0.001700
3654.000000	0.002221
3652.000000	0.002631
3650.000000	0.003004
3648.000000	0.003468
3646.000000	0.003899
3644.000000	0.004124
3642.000000	0.004183
3640.000000	0.004116
3638.000000	0.003931
3636.000000	0.003640
3634.000000	0.003273
3632.000000	0.002881
3630.000000	0.002505
3628.000000	0.002182
3626.000000	0.001874
3624.000000	0.001546
3622.000000	0.001244
3620.000000	0.001088
3618.000000	0.001135
3616.000000	0.001197
3614.000000	0.001140
3612.000000	0.001006
3610.000000	0.000829
3608.000000	0.000681
3606.000000	0.000590
3604.000000	0.000433
3602.000000	0.000156
3600.000000	-0.000148
3598.000000	-0.000378
3596.000000	-0.000482
3594.000000	-0.000491
3592.000000	-0.000481
3590.000000	-0.000476
3588.000000	-0.000448
3586.000000	-0.000334
3584.000000	-0.000175
3582.000000	-0.000083
3580.000000	-0.000079
3578.000000	-0.000139
3576.000000	-0.000220
3574.000000	-0.000304
3572.000000	-0.000412
3570.000000	-0.000564
3568.000000	-0.000666
3566.000000	-0.000572
3564.000000	-0.000358
3562.000000	-0.000125
3560.000000	0.000158
3558.000000	0.000497
3556.000000	0.000890
3554.000000	0.001363
3552.000000	0.001871
3550.000000	0.002296
3548.000000	0.002612
3546.000000	0.002876
3544.000000	0.003080
3542.000000	0.003187
3540.000000	0.003222
3538.000000	0.003225
3536.000000	0.003205
3534.000000	0.003169
3532.000000	0.003115
3530.000000	0.003095
3528.000000	0.003211
3526.000000	0.003478
3524.000000	0.003802
3522.000000	0.004084
3520.000000	0.004306
3518.000000	0.004509
3516.000000	0.004761
3514.000000	0.005085
3512.000000	0.005402
3510.000000	0.005633
3508.000000	0.005811
3506.000000	0.005987
3504.000000	0.006179
3502.000000	0.006393
3500.000000	0.006577
3498.000000	0.006651
3496.000000	0.006615
3494.000000	0.006523
3492.000000	0.006416
3490.000000	0.006333
3488.000000	0.006331
3486.000000	0.006425
3484.000000	0.006586
3482.000000	0.006810
3480.000000	0.007094
3478.000000	0.007404
3476.000000	0.007734
3474.000000	0.008088
3472.000000	0.008392
3470.000000	0.008516
3468.000000	0.008436
3466.000000	0.008240
3464.000000	0.008013
3462.000000	0.007805
3460.000000	0.007649
3458.000000	0.007566
3456.000000	0.007603
3454.000000	0.007825
3452.000000	0.008197
3450.000000	0.008621
3448.000000	0.009013
3446.000000	0.009324
3444.000000	0.009538
3442.000000	0.009628
3440.000000	0.009568
3438.000000	0.009362
3436.000000	0.009065
3434.000000	0.008778
3432.000000	0.008556
3430.000000	0.008369
3428.000000	0.008200
3426.000000	0.008105
3424.000000	0.008117
3422.000000	0.008202
3420.000000	0.008324
3418.000000	0.008459
3416.000000	0.008587
3414.000000	0.008743
3412.000000	0.008947
3410.000000	0.009120
3408.000000	0.009223
3406.000000	0.009320
3404.000000	0.009429
3402.000000	0.009503
3400.000000	0.009531
3398.000000	0.009521
3396.000000	0.009463
3394.000000	0.009412
3392.000000	0.009418
3390.000000	0.009415
3388.000000	0.009349
3386.000000	0.009263
3384.000000	0.009206
3382.000000	0.009188
3380.000000	0.009177
3378.000000	0.009120
3376.000000	0.009001
3374.000000	0.008823
3372.000000	0.008600
3370.000000	0.008379
3368.000000	0.008174
3366.000000	0.007935
3364.000000	0.007670
3362.000000	0.007470
3360.000000	0.007350
3358.000000	0.007254
3356.000000	0.007187
3354.000000	0.007141
3352.000000	0.007060
3350.000000	0.006931
3348.000000	0.006783
3346.000000	0.006615
3344.000000	0.006404
3342.000000	0.006192
3340.000000	0.006022
3338.000000	0.005862
3336.000000	0.005704
3334.000000	0.005559
3332.000000	0.005421
3330.000000	0.005276
3328.000000	0.005126
3326.000000	0.005022
3324.000000	0.004997
3322.000000	0.005056
3320.000000	0.005161
3318.000000	0.005285
3316.000000	0.005466
3314.000000	0.005718
3312.000000	0.006029
3310.000000	0.006350
3308.000000	0.006599
3306.000000	0.006760
3304.000000	0.006893
3302.000000	0.007052
3300.000000	0.007188
3298.000000	0.007203
3296.000000	0.007041
3294.000000	0.006733
3292.000000	0.006388
3290.000000	0.006063
3288.000000	0.005724
3286.000000	0.005350
3284.000000	0.004996
3282.000000	0.004761
3280.000000	0.004696
3278.000000	0.004752
3276.000000	0.004841
3274.000000	0.004918
3272.000000	0.004984
3270.000000	0.005046
3268.000000	0.005073
3266.000000	0.005020
3264.000000	0.004895
3262.000000	0.004754
3260.000000	0.004664
3258.000000	0.004643
3256.000000	0.004616
3254.000000	0.004523
3252.000000	0.004401
3250.000000	0.004310
3248.000000	0.004263
3246.000000	0.004214
3244.000000	0.004117
3242.000000	0.003966
3240.000000	0.003807
3238.000000	0.003702
3236.000000	0.003629
3234.000000	0.003511
3232.000000	0.003340
3230.000000	0.003170
3228.000000	0.003059
3226.000000	0.003014
3224.000000	0.002991
3222.000000	0.002939
3220.000000	0.002868
3218.000000	0.002842
3216.000000	0.002866
3214.000000	0.002874
3212.000000	0.002813
3210.000000	0.002689
3208.000000	0.002541
3206.000000	0.002400
3204.000000	0.002266
3202.000000	0.002135
3200.000000	0.001997
3198.000000	0.001842
3196.000000	0.001667
3194.000000	0.001460
3192.000000	0.001219
3190.000000	0.000986
3188.000000	0.000783
3186.000000	0.000583
3184.000000	0.000393
3182.000000	0.000238
3180.000000	0.000118
3178.000000	0.000043
3176.000000	0.000002
3174.000000	-0.000086
3172.000000	-0.000269
3170.000000	-0.000504
3168.000000	-0.000712
3166.000000	-0.000897
3164.000000	-0.001107
3162.000000	-0.001339
3160.000000	-0.001562
3158.000000	-0.001737
3156.000000	-0.001810
3154.000000	-0.001796
3152.000000	-0.001798
3150.000000	-0.001855
3148.000000	-0.001920
3146.000000	-0.001980
3144.000000	-0.002067
3142.000000	-0.002209
3140.000000	-0.002429
3138.000000	-0.002713
3136.000000	-0.002995
3134.000000	-0.003261
3132.000000	-0.003561
3130.000000	-0.003895
3128.000000	-0.004186
3126.000000	-0.004348
3124.000000	-0.004362
3122.000000	-0.004302
3120.000000	-0.004231
3118.000000	-0.004136
3116.000000	-0.003960
3114.000000	-0.003681
3112.000000	-0.003369
3110.000000	-0.003111
3108.000000	-0.002927
3106.000000	-0.002801
3104.000000	-0.002729
3102.000000	-0.002696
3100.000000	-0.002682
3098.000000	-0.002708
3096.000000	-0.002779
3094.000000	-0.002873
3092.000000	-0.002996
3090.000000	-0.003159
3088.000000	-0.003336
3086.000000	-0.003482
3084.000000	-0.003612
3082.000000	-0.003759
3080.000000	-0.003887
3078.000000	-0.003965
3076.000000	-0.004024
3074.000000	-0.004083
3072.000000	-0.004107
3070.000000	-0.004077
3068.000000	-0.004010
3066.000000	-0.003939
3064.000000	-0.003898
3062.000000	-0.003892
3060.000000	-0.003877
3058.000000	-0.003793
3056.000000	-0.003634
3054.000000	-0.003457
3052.000000	-0.003304
3050.000000	-0.003162
3048.000000	-0.003026
3046.000000	-0.002902
3044.000000	-0.002805
3042.000000	-0.002789
3040.000000	-0.002889
3038.000000	-0.003075
3036.000000	-0.003281
3034.000000	-0.003483
3032.000000	-0.003675
3030.000000	-0.003826
3028.000000	-0.003931
3026.000000	-0.003999
3024.000000	-0.004019
3022.000000	-0.003984
3020.000000	-0.003922
3018.000000	-0.003846
3016.000000	-0.003737
3014.000000	-0.003611
3012.000000	-0.003490
3010.000000	-0.003356
3008.000000	-0.003187
3006.000000	-0.002997
3004.000000	-0.002789
3002.000000	-0.002562
3000.000000	-0.002351
2998.000000	-0.002183
2996.000000	-0.002051
2994.000000	-0.001949
2992.000000	-0.001888
2990.000000	-0.001853
2988.000000	-0.001802
2986.000000	-0.001714
2984.000000	-0.001591
2982.000000	-0.001450
2980.000000	-0.001292
2978.000000	-0.001096
2976.000000	-0.000881
2974.000000	-0.000688
2972.000000	-0.000534
2970.000000	-0.000421
2968.000000	-0.000377
2966.000000	-0.000404
2964.000000	-0.000458
2962.000000	-0.000546
2960.000000	-0.000666
2958.000000	-0.000733
2956.000000	-0.000735
2954.000000	-0.000727
2952.000000	-0.000714
2950.000000	-0.000658
2948.000000	-0.000526
2946.000000	-0.000294
2944.000000	0.000015
2942.000000	0.000316
2940.000000	0.000581
2938.000000	0.000861
2936.000000	0.001157
2934.000000	0.001439
2932.000000	0.001691
2930.000000	0.001875
2928.000000	0.001955
2926.000000	0.001952
2924.000000	0.001922
2922.000000	0.001860
2920.000000	0.001715
2918.000000	0.001489
2916.000000	0.001206
2914.000000	0.000899
2912.000000	0.000616
2910.000000	0.000360
2908.000000	0.000086
2906.000000	-0.000204
2904.000000	-0.000474
2902.000000	-0.000711
2900.000000	-0.000941
2898.000000	-0.001196
2896.000000	-0.001472
2894.000000	-0.001728
2892.000000	-0.001904
2890.000000	-0.001967
2888.000000	-0.001939
2886.000000	-0.001837
2884.000000	-0.001642
2882.000000	-0.001341
2880.000000	-0.000967
2878.000000	-0.000583
2876.000000	-0.000233
2874.000000	0.000073
2872.000000	0.000332
2870.000000	0.000547
2868.000000	0.000748
2866.000000	0.000961
2864.000000	0.001177
2862.000000	0.001403
2860.000000	0.001637
2858.000000	0.001845
2856.000000	0.002019
2854.000000	0.002171
2852.000000	0.002287
2850.000000	0.002341
2848.000000	0.002332
2846.000000	0.002256
2844.000000	0.002109
2842.000000	0.001908
2840.000000	0.001656
2838.000000	0.001348
2836.000000	0.001011
2834.000000	0.000672
2832.000000	0.000338
2830.000000	0.000031
2828.000000	-0.000225
2826.000000	-0.000417
2824.000000	-0.000484
2822.000000	-0.000391
2820.000000	-0.000228
2818.000000	-0.000095
2816.000000	-0.000020
2814.000000	0.000000
2812.000000	0.000003
2810.000000	-0.000005
2808.000000	-0.000061
2806.000000	-0.000223
2804.000000	-0.000444
2802.000000	-0.000626
2800.000000	-0.000729
2798.000000	-0.000787
2796.000000	-0.000843
2794.000000	-0.000892
2792.000000	-0.000916
2790.000000	-0.000928
2788.000000	-0.000959
2786.000000	-0.001016
2784.000000	-0.001089
2782.000000	-0.001154
2780.000000	-0.001193
2778.000000	-0.001213
2776.000000	-0.001227
2774.000000	-0.001222
2772.000000	-0.001171
2770.000000	-0.001095
2768.000000	-0.001037
2766.000000	-0.001006
2764.000000	-0.000997
2762.000000	-0.001003
2760.000000	-0.001013
2758.000000	-0.001040
2756.000000	-0.001115
2754.000000	-0.001235
2752.000000	-0.001364
2750.000000	-0.001472
2748.000000	-0.001563
2746.000000	-0.001668
2744.000000	-0.001812
2742.000000	-0.001981
2740.000000	-0.002131
2738.000000	-0.002236
2736.000000	-0.002319
2734.000000	-0.002404
2732.000000	-0.002478
2730.000000	-0.002495
2728.000000	-0.002412
2726.000000	-0.002230
2724.000000	-0.002004
2722.000000	-0.001769
2720.000000	-0.001493
2718.000000	-0.001151
2716.000000	-0.000777
2714.000000	-0.000424
2712.000000	-0.000124
2710.000000	0.000087
2708.000000	0.000193
2706.000000	0.000241
2704.000000	0.000262
2702.000000	0.000225
2700.000000	0.000110
2698.000000	-0.000037
2696.000000	-0.000177
2694.000000	-0.000289
2692.000000	-0.000334
2690.000000	-0.000323
2688.000000	-0.000341
2686.000000	-0.000423
2684.000000	-0.000512
2682.000000	-0.000569
2680.000000	-0.000628
2678.000000	-0.000720
2676.000000	-0.000843
2674.000000	-0.000970
2672.000000	-0.001034
2670.000000	-0.000991
2668.000000	-0.000896
2666.000000	-0.000812
2664.000000	-0.000736
2662.000000	-0.000635
2660.000000	-0.000475
2658.000000	-0.000275
2656.000000	-0.000116
2654.000000	-0.000035
2652.000000	-0.000023
2650.000000	-0.000085
2648.000000	-0.000204
2646.000000	-0.000353
2644.000000	-0.000542
2642.000000	-0.000773
2640.000000	-0.000993
2638.000000	-0.001158
2636.000000	-0.001258
2634.000000	-0.001273
2632.000000	-0.001193
2630.000000	-0.001045
2628.000000	-0.000860
2626.000000	-0.000654
2624.000000	-0.000458
2622.000000	-0.000285
2620.000000	-0.000132
2618.000000	-0.000004
2616.000000	0.000096
2614.000000	0.000156
2612.000000	0.000190
2610.000000	0.000237
2608.000000	0.000306
2606.000000	0.000376
2604.000000	0.000439
2602.000000	0.000516
2600.000000	0.000622
2598.000000	0.000779
2596.000000	0.001004
2594.000000	0.001277
2592.000000	0.001587
2590.000000	0.001959
2588.000000	0.002405
2586.000000	0.002909
2584.000000	0.003428
2582.000000	0.003912
2580.000000	0.004345
2578.000000	0.004729
2576.000000	0.005046
2574.000000	0.005283
2572.000000	0.005447
2570.000000	0.005549
2568.000000	0.005585
2566.000000	0.005556
2564.000000	0.005486
2562.000000	0.005409
2560.000000	0.005352
2558.000000	0.005314
2556.000000	0.005273
2554.000000	0.005209
2552.000000	0.005135
2550.000000	0.005106
2548.000000	0.005142
2546.000000	0.005191
2544.000000	0.005195
2542.000000	0.005139
2540.000000	0.005044
2538.000000	0.004938
2536.000000	0.004818
2534.000000	0.004658
2532.000000	0.004432
2530.000000	0.004155
2528.000000	0.003876
2526.000000	0.003649
2524.000000	0.003489
2522.000000	0.003392
2520.000000	0.003371
2518.000000	0.003431
2516.000000	0.003571
2514.000000	0.003825
2512.000000	0.004191
2510.000000	0.004604
2508.000000	0.005030
2506.000000	0.005451
2504.000000	0.005830
2502.000000	0.006147
2500.000000	0.006380
2498.000000	0.006488
2496.000000	0.006447
2494.000000	0.006272
2492.000000	0.005971
2490.000000	0.005534
2488.000000	0.004983
2486.000000	0.004370
2484.000000	0.003757
2482.000000	0.003217
2480.000000	0.002783
2478.000000	0.002444
2476.000000	0.002186
2474.000000	0.002002
2472.000000	0.001885
2470.000000	0.001828
2468.000000	0.001807
2466.000000	0.001778
2464.000000	0.001693
2462.000000	0.001547
2460.000000	0.001359
2458.000000	0.001146
2456.000000	0.000938
2454.000000	0.000759
2452.000000	0.000604
2450.000000	0.000446
2448.000000	0.000290
2446.000000	0.000176
2444.000000	0.000117
2442.000000	0.000094
2440.000000	0.000108
2438.000000	0.000155
2436.000000	0.000196
2434.000000	0.000200
2432.000000	0.000180
2430.000000	0.000137
2428.000000	0.000050
2426.000000	-0.000058
2424.000000	-0.000162
2422.000000	-0.000287
2420.000000	-0.000428
2418.000000	-0.000523
2416.000000	-0.000524
2414.000000	-0.000445
2412.000000	-0.000325
2410.000000	-0.000196
2408.000000	-0.000105
2406.000000	-0.000066
2404.000000	-0.000049
2402.000000	-0.000050
2400.000000	-0.000093
2398.000000	-0.000205
2396.000000	-0.000384
2394.000000	-0.000596
2392.000000	-0.000804
2390.000000	-0.000963
2388.000000	-0.001052
2386.000000	-0.001099
2384.000000	-0.001119
2382.000000	-0.001071
2380.000000	-0.000925
2378.000000	-0.000728
2376.000000	-0.000544
2374.000000	-0.000465
2372.000000	-0.000606
2370.000000	-0.000956
2368.000000	-0.001423
2366.000000	-0.002029
2364.000000	-0.002862
2362.000000	-0.003828
2360.000000	-0.004780
2358.000000	-0.005618
2356.000000	-0.006193
2354.000000	-0.006416
2352.000000	-0.006378
2350.000000	-0.006165
2348.000000	-0.005740
2346.000000	-0.005167
2344.000000	-0.004590
2342.000000	-0.004078
2340.000000	-0.003702
2338.000000	-0.003527
2336.000000	-0.003511
2334.000000	-0.003563
2332.000000	-0.003684
2330.000000	-0.003895
2328.000000	-0.004117
2326.000000	-0.004310
2324.000000	-0.004486
2322.000000	-0.004627
2320.000000	-0.004716
2318.000000	-0.004786
2316.000000	-0.004871
2314.000000	-0.004935
2312.000000	-0.004957
2310.000000	-0.004968
2308.000000	-0.004980
2306.000000	-0.004970
2304.000000	-0.004956
2302.000000	-0.004969
2300.000000	-0.005003
2298.000000	-0.005051
2296.000000	-0.005117
2294.000000	-0.005176
2292.000000	-0.005205
2290.000000	-0.005209
2288.000000	-0.005197
2286.000000	-0.005166
2284.000000	-0.005113
2282.000000	-0.005047
2280.000000	-0.004991
2278.000000	-0.004975
2276.000000	-0.005016
2274.000000	-0.005103
2272.000000	-0.005216
2270.000000	-0.005352
2268.000000	-0.005523
2266.000000	-0.005723
2264.000000	-0.005911
2262.000000	-0.006058
2260.000000	-0.006148
2258.000000	-0.006184
2256.000000	-0.006201
2254.000000	-0.006225
2252.000000	-0.006249
2250.000000	-0.006259
2248.000000	-0.006254
2246.000000	-0.006256
2244.000000	-0.006287
2242.000000	-0.006357
2240.000000	-0.006452
2238.000000	-0.006545
2236.000000	-0.006620
2234.000000	-0.006682
2232.000000	-0.006733
2230.000000	-0.006770
2228.000000	-0.006777
2226.000000	-0.006741
2224.000000	-0.006652
2222.000000	-0.006502
2220.000000	-0.006297
2218.000000	-0.006047
2216.000000	-0.005746
2214.000000	-0.005418
2212.000000	-0.005110
2210.000000	-0.004858
2208.000000	-0.004683
2206.000000	-0.004579
2204.000000	-0.004537
2202.000000	-0.004570
2200.000000	-0.004689
2198.000000	-0.004855
2196.000000	-0.005005
2194.000000	-0.005102
2192.000000	-0.005135
2190.000000	-0.005110
2188.000000	-0.005052
2186.000000	-0.004960
2184.000000	-0.004817
2182.000000	-0.004643
2180.000000	-0.004480
2178.000000	-0.004353
2176.000000	-0.004277
2174.000000	-0.004248
2172.000000	-0.004243
2170.000000	-0.004246
2168.000000	-0.004250
2166.000000	-0.004248
2164.000000	-0.004221
2162.000000	-0.004150
2160.000000	-0.004011
2158.000000	-0.003786
2156.000000	-0.003501
2154.000000	-0.003222
2152.000000	-0.002984
2150.000000	-0.002758
2148.000000	-0.002521
2146.000000	-0.002289
2144.000000	-0.002096
2142.000000	-0.001970
2140.000000	-0.001899
2138.000000	-0.001830
2136.000000	-0.001734
2134.000000	-0.001638
2132.000000	-0.001577
2130.000000	-0.001534
2128.000000	-0.001489
2126.000000	-0.001455
2124.000000	-0.001445
2122.000000	-0.001453
2120.000000	-0.001438
2118.000000	-0.001366
2116.000000	-0.001249
2114.000000	-0.001120
2112.000000	-0.000989
2110.000000	-0.000827
2108.000000	-0.000619
2106.000000	-0.000387
2104.000000	-0.000181
2102.000000	-0.000056
2100.000000	0.000000
2098.000000	0.000014
2096.000000	0.000020
2094.000000	0.000030
2092.000000	0.000073
2090.000000	0.000176
2088.000000	0.000341
2086.000000	0.000569
2084.000000	0.000861
2082.000000	0.001202
2080.000000	0.001557
2078.000000	0.001893
2076.000000	0.002175
2074.000000	0.002380
2072.000000	0.002515
2070.000000	0.002600
2068.000000	0.002648
2066.000000	0.002673
2064.000000	0.002688
2062.000000	0.002703
2060.000000	0.002737
2058.000000	0.002812
2056.000000	0.002928
2054.000000	0.003072
2052.000000	0.003238
2050.000000	0.003427
2048.000000	0.003630
2046.000000	0.003857
2044.000000	0.004104
2042.000000	0.004326
2040.000000	0.004509
2038.000000	0.004671
2036.000000	0.004823
2034.000000	0.004955
2032.000000	0.005060
2030.000000	0.005139
2028.000000	0.005189
2026.000000	0.005221
2024.000000	0.005264
2022.000000	0.005312
2020.000000	0.005346
2018.000000	0.005371
2016.000000	0.005394
2014.000000	0.005397
2012.000000	0.005375
2010.000000	0.005338
2008.000000	0.005305
2006.000000	0.005293
2004.000000	0.005313
2002.000000	0.005374
2000.000000	0.005488
1998.000000	0.005664
1996.000000	0.005894
1994.000000	0.006149
1992.000000	0.006398
1990.000000	0.006627
1988.000000	0.006835
1986.000000	0.006993
1984.000000	0.007045
1982.000000	0.006991
1980.000000	0.006891
1978.000000	0.006813
1976.000000	0.006777
1974.000000	0.006773
1972.000000	0.006787
1970.000000	0.006819
1968.000000	0.006910
1966.000000	0.007107
1964.000000	0.007385
1962.000000	0.007673
1960.000000	0.007919
1958.000000	0.008113
1956.000000	0.008287
1954.000000	0.008478
1952.000000	0.008678
1950.000000	0.008844
1948.000000	0.008964
1946.000000	0.009046
1944.000000	0.009103
1942.000000	0.009157
1940.000000	0.009191
1938.000000	0.009169
1936.000000	0.009098
1934.000000	0.009004
1932.000000	0.008905
1930.000000	0.008808
1928.000000	0.008711
1926.000000	0.008625
1924.000000	0.008586
1922.000000	0.008637
1920.000000	0.008768
1918.000000	0.008923
1916.000000	0.009087
1914.000000	0.009275
1912.000000	0.009503
1910.000000	0.009778
1908.000000	0.010074
1906.000000	0.010351
1904.000000	0.010605
1902.000000	0.010871
1900.000000	0.011142
1898.000000	0.011390
1896.000000	0.011595
1894.000000	0.011737
1892.000000	0.011817
1890.000000	0.011871
1888.000000	0.011921
1886.000000	0.011948
1884.000000	0.011945
1882.000000	0.011942
1880.000000	0.011959
1878.000000	0.012010
1876.000000	0.012100
1874.000000	0.012215
1872.000000	0.012344
1870.000000	0.012498
1868.000000	0.012694
1866.000000	0.012931
1864.000000	0.013192
1862.000000	0.013472
1860.000000	0.013789
1858.000000	0.014167
1856.000000	0.014591
1854.000000	0.015026
1852.000000	0.015445
1850.000000	0.015828
1848.000000	0.016175
1846.000000	0.016495
1844.000000	0.016757
1842.000000	0.016910
1840.000000	0.016947
1838.000000	0.016904
1836.000000	0.016832
1834.000000	0.016777
1832.000000	0.016769
1830.000000	0.016830
1828.000000	0.016987
1826.000000	0.017256
1824.000000	0.017669
1822.000000	0.018248
1820.000000	0.018937
1818.000000	0.019678
1816.000000	0.020450
1814.000000	0.021226
1812.000000	0.021967
1810.000000	0.022642
1808.000000	0.023194
1806.000000	0.023566
1804.000000	0.023789
1802.000000	0.023916
1800.000000	0.023948
1798.000000	0.023877
1796.000000	0.023715
1794.000000	0.023477
1792.000000	0.023212
1790.000000	0.022985
1788.000000	0.022784
1786.000000	0.022574
1784.000000	0.022357
1782.000000	0.022152
1780.000000	0.021975
1778.000000	0.021863
1776.000000	0.021853
1774.000000	0.021942
1772.000000	0.022130
1770.000000	0.022421
1768.000000	0.022781
1766.000000	0.023195
1764.000000	0.023668
1762.000000	0.024175
1760.000000	0.024656
1758.000000	0.025061
1756.000000	0.025394
1754.000000	0.025687
1752.000000	0.025980
1750.000000	0.026280
1748.000000	0.026568
1746.000000	0.026847
1744.000000	0.027148
1742.000000	0.027496
1740.000000	0.027879
1738.000000	0.028267
1736.000000	0.028632
1734.000000	0.028962
1732.000000	0.029273
1730.000000	0.029574
1728.000000	0.029863
1726.000000	0.030141
1724.000000	0.030420
1722.000000	0.030724
1720.000000	0.031066
1718.000000	0.031435
1716.000000	0.031834
1714.000000	0.032268
1712.000000	0.032708
1710.000000	0.033149
1708.000000	0.033612
1706.000000	0.034100
1704.000000	0.034606
1702.000000	0.035144
1700.000000	0.035727
1698.000000	0.036361
1696.000000	0.037059
1694.000000	0.037833
1692.000000	0.038649
1690.000000	0.039464
1688.000000	0.040253
1686.000000	0.041010
1684.000000	0.041756
1682.000000	0.042517
1680.000000	0.043255
1678.000000	0.043947
1676.000000	0.044607
1674.000000	0.045267
1672.000000	0.045975
1670.000000	0.046759
1668.000000	0.047597
1666.000000	0.048448
1664.000000	0.049335
1662.000000	0.050298
1660.000000	0.051352
1658.000000	0.052482
1656.000000	0.053650
1654.000000	0.054821
1652.000000	0.055982
1650.000000	0.057135
1648.000000	0.058305
1646.000000	0.059496
1644.000000	0.060684
1642.000000	0.061849
1640.000000	0.063025
1638.000000	0.064274
1636.000000	0.065660
1634.000000	0.067176
1632.000000	0.068741
1630.000000	0.070340
1628.000000	0.071996
1626.000000	0.073728
1624.000000	0.075537
1622.000000	0.077396
1620.000000	0.079238
1618.000000	0.081052
1616.000000	0.082907
1614.000000	0.084843
1612.000000	0.086829
1610.000000	0.088834
1608.000000	0.090835
1606.000000	0.092817
1604.000000	0.094783
1602.000000	0.096733
1600.000000	0.098622
1598.000000	0.100393
1596.000000	0.102020
1594.000000	0.103506
1592.000000	0.104855
1590.000000	0.106079
1588.000000	0.107186
1586.000000	0.108162
1584.000000	0.109018
1582.000000	0.109807
1580.000000	0.110580
1578.000000	0.111351
1576.000000	0.112105
1574.000000	0.112845
1572.000000	0.113596
1570.000000	0.114397
1568.000000	0.115270
1566.000000	0.116182
1564.000000	0.117078
1562.000000	0.117941
1560.000000	0.118793
1558.000000	0.119651
1556.000000	0.120423
1554.000000	0.120981
1552.000000	0.121318
1550.000000	0.121476
1548.000000	0.121489
1546.000000	0.121375
1544.000000	0.121146
1542.000000	0.120806
1540.000000	0.120445
1538.000000	0.120222
1536.000000	0.120133
1534.000000	0.120178
1532.000000	0.120371
1530.000000	0.120685
1528.000000	0.121077
1526.000000	0.121545
1524.000000	0.122079
1522.000000	0.122635
1520.000000	0.123205
1518.000000	0.123785
1516.000000	0.124351
1514.000000	0.124914
1512.000000	0.125524
1510.000000	0.126174
1508.000000	0.126828
1506.000000	0.127529
1504.000000	0.128248
1502.000000	0.128877
1500.000000	0.129398
1498.000000	0.129828
1496.000000	0.130159
1494.000000	0.130366
1492.000000	0.130453
1490.000000	0.130413
1488.000000	0.130266
1486.000000	0.130079
1484.000000	0.129894
1482.000000	0.129698
1480.000000	0.129479
1478.000000	0.129273
1476.000000	0.129128
1474.000000	0.129062
1472.000000	0.129057
1470.000000	0.129076
1468.000000	0.129124
1466.000000	0.129228
1464.000000	0.129412
1462.000000	0.129658
1460.000000	0.129915
1458.000000	0.130160
1456.000000	0.130430
1454.000000	0.130743
1452.000000	0.131046
1450.000000	0.131297
1448.000000	0.131487
1446.000000	0.131629
1444.000000	0.131735
1442.000000	0.131810
1440.000000	0.131842
1438.000000	0.131831
1436.000000	0.131826
1434.000000	0.131909
1432.000000	0.132102
1430.000000	0.132377
1428.000000	0.132713
1426.000000	0.133101
1424.000000	0.133530
1422.000000	0.133972
1420.000000	0.134392
1418.000000	0.134758
1416.000000	0.135034
1414.000000	0.135175
1412.000000	0.135159
1410.000000	0.134977
1408.000000	0.134626
1406.000000	0.134119
1404.000000	0.133476
1402.000000	0.132688
1400.000000	0.131768
1398.000000	0.130787
1396.000000	0.129802
1394.000000	0.128821
1392.000000	0.127872
1390.000000	0.126987
1388.000000	0.126167
1386.000000	0.125402
1384.000000	0.124688
1382.000000	0.124043
1380.000000	0.123513
1378.000000	0.123172
1376.000000	0.123111
1374.000000	0.123402
1372.000000	0.124080
1370.000000	0.125175
1368.000000	0.126691
1366.000000	0.128571
1364.000000	0.130726
1362.000000	0.133068
1360.000000	0.135438
1358.000000	0.137650
1356.000000	0.139590
1354.000000	0.141197
1352.000000	0.142429
1350.000000	0.143270
1348.000000	0.143725
1346.000000	0.143795
1344.000000	0.143505
1342.000000	0.142958
1340.000000	0.142249
1338.000000	0.141412
1336.000000	0.140466
1334.000000	0.139439
1332.000000	0.138348
1330.000000	0.137224
1328.000000	0.136126
1326.000000	0.135064
1324.000000	0.133997
1322.000000	0.132911
1320.000000	0.131821
1318.000000	0.130735
1316.000000	0.129672
1314.000000	0.128639
1312.000000	0.127599
1310.000000	0.126523
1308.000000	0.125429
1306.000000	0.124340
1304.000000	0.123253
1302.000000	0.122151
1300.000000	0.121017
1298.000000	0.119856
1296.000000	0.118686
1294.000000	0.117522
1292.000000	0.116363
1290.000000	0.115213
1288.000000	0.114088
1286.000000	0.113017
1284.000000	0.112022
1282.000000	0.111095
1280.000000	0.110218
1278.000000	0.109397
1276.000000	0.108632
1274.000000	0.107907
1272.000000	0.107193
1270.000000	0.106447
1268.000000	0.105621
1266.000000	0.104705
1264.000000	0.103714
1262.000000	0.102658
1260.000000	0.101540
1258.000000	0.100372
1256.000000	0.099168
1254.000000	0.097948
1252.000000	0.096740
1250.000000	0.095567
1248.000000	0.094445
1246.000000	0.093357
1244.000000	0.092266
1242.000000	0.091155
1240.000000	0.090031
1238.000000	0.088901
1236.000000	0.087769
1234.000000	0.086647
1232.000000	0.085531
1230.000000	0.084425
1228.000000	0.083383
1226.000000	0.082436
1224.000000	0.081569
1222.000000	0.080767
1220.000000	0.080032
1218.000000	0.079338
1216.000000	0.078645
1214.000000	0.077948
1212.000000	0.077252
1210.000000	0.076543
1208.000000	0.075816
1206.000000	0.075076
1204.000000	0.074316
1202.000000	0.073563
1200.000000	0.072888
1198.000000	0.072319
1196.000000	0.071815
1194.000000	0.071355
1192.000000	0.070945
1190.000000	0.070593
1188.000000	0.070301
1186.000000	0.070056
1184.000000	0.069824
1182.000000	0.069563
1180.000000	0.069264
1178.000000	0.068957
1176.000000	0.068651
1174.000000	0.068334
1172.000000	0.068013
1170.000000	0.067691
1168.000000	0.067349
1166.000000	0.066987
1164.000000	0.066641
1162.000000	0.066331
1160.000000	0.066052
1158.000000	0.065809
1156.000000	0.065603
1154.000000	0.065419
1152.000000	0.065240
1150.000000	0.065071
1148.000000	0.064929
1146.000000	0.064822
1144.000000	0.064737
1142.000000	0.064672
1140.000000	0.064644
1138.000000	0.064674
1136.000000	0.064785
1134.000000	0.065016
1132.000000	0.065382
1130.000000	0.065827
1128.000000	0.066297
1126.000000	0.066776
1124.000000	0.067233
1122.000000	0.067631
1120.000000	0.067953
1118.000000	0.068167
1116.000000	0.068223
1114.000000	0.068124
1112.000000	0.067916
1110.000000	0.067655
1108.000000	0.067409
1106.000000	0.067261
1104.000000	0.067292
1102.000000	0.067553
1100.000000	0.068059
1098.000000	0.068785
1096.000000	0.069682
1094.000000	0.070684
1092.000000	0.071699
1090.000000	0.072582
1088.000000	0.073153
1086.000000	0.073283
1084.000000	0.072941
1082.000000	0.072183
1080.000000	0.071098
1078.000000	0.069774
1076.000000	0.068295
1074.000000	0.066737
1072.000000	0.065194
1070.000000	0.063765
1068.000000	0.062520
1066.000000	0.061484
1064.000000	0.060648
1062.000000	0.059953
1060.000000	0.059336
1058.000000	0.058774
1056.000000	0.058236
1054.000000	0.057685
1052.000000	0.057106
1050.000000	0.056474
1048.000000	0.055749
1046.000000	0.054924
1044.000000	0.054043
1042.000000	0.053157
1040.000000	0.052277
1038.000000	0.051396
1036.000000	0.050497
1034.000000	0.049592
1032.000000	0.048709
1030.000000	0.047844
1028.000000	0.046948
1026.000000	0.045966
1024.000000	0.044890
1022.000000	0.043742
1020.000000	0.042528
1018.000000	0.041234
1016.000000	0.039843
1014.000000	0.038379
1012.000000	0.036887
1010.000000	0.035392
1008.000000	0.033904
1006.000000	0.032423
1004.000000	0.030964
1002.000000	0.029565
1000.000000	0.028267
998.000000	0.027061
996.000000	0.025895
994.000000	0.024762
992.000000	0.023672
990.000000	0.022614
988.000000	0.021587
986.000000	0.020610
984.000000	0.019667
982.000000	0.018719
980.000000	0.017763
978.000000	0.016823
976.000000	0.015917
974.000000	0.015060
972.000000	0.014232
970.000000	0.013395
968.000000	0.012551
966.000000	0.011715
964.000000	0.010895
962.000000	0.010106
960.000000	0.009344
958.000000	0.008578
956.000000	0.007795
954.000000	0.007002
952.000000	0.006202
950.000000	0.005407
948.000000	0.004632
946.000000	0.003869
944.000000	0.003128
942.000000	0.002462
940.000000	0.001893
938.000000	0.001402
936.000000	0.001000
934.000000	0.000678
932.000000	0.000419
930.000000	0.000239
928.000000	0.000122
926.000000	0.000024
924.000000	-0.000064
922.000000	-0.000105
920.000000	-0.000091
918.000000	0.000000
916.000000	0.000182
914.000000	0.000476
912.000000	0.000955
910.000000	0.001708
908.000000	0.002762
906.000000	0.004105
904.000000	0.005764
902.000000	0.007803
900.000000	0.010282
898.000000	0.013220
896.000000	0.016584
894.000000	0.020325
892.000000	0.024429
890.000000	0.028937
888.000000	0.033877
886.000000	0.039165
884.000000	0.044648
882.000000	0.050176
880.000000	0.055642
878.000000	0.060987
876.000000	0.066104
874.000000	0.070825
872.000000	0.074963
870.000000	0.078413
868.000000	0.081164
866.000000	0.083247
864.000000	0.084679
862.000000	0.085445
860.000000	0.085588
858.000000	0.085235
856.000000	0.084496
854.000000	0.083413
852.000000	0.082013
850.000000	0.080370
848.000000	0.078583
846.000000	0.076735
844.000000	0.074843
842.000000	0.072893
840.000000	0.070925
838.000000	0.069021
836.000000	0.067203
834.000000	0.065421
832.000000	0.063600
830.000000	0.061695
828.000000	0.059720
826.000000	0.057674
824.000000	0.055505
822.000000	0.053132
820.000000	0.050558
818.000000	0.047910
816.000000	0.045248
814.000000	0.042534
812.000000	0.039755
810.000000	0.036926
808.000000	0.034108
806.000000	0.031409
804.000000	0.028833
802.000000	0.026298
800.000000	0.023840
798.000000	0.021527
796.000000	0.019350
794.000000	0.017311
792.000000	0.015413
790.000000	0.013595
788.000000	0.011838
786.000000	0.010200
784.000000	0.008666
782.000000	0.007168
780.000000	0.005780
778.000000	0.004603
776.000000	0.003587
774.000000	0.002661
772.000000	0.001744
770.000000	0.000772
768.000000	-0.000224
766.000000	-0.001215
764.000000	-0.002161
762.000000	-0.003078
760.000000	-0.004033
758.000000	-0.004979
756.000000	-0.005748
754.000000	-0.006269
752.000000	-0.006623
750.000000	-0.006819
748.000000	-0.006829
746.000000	-0.006657
744.000000	-0.006215
742.000000	-0.005472
740.000000	-0.004559
738.000000	-0.003604
736.000000	-0.002639
734.000000	-0.001625
732.000000	-0.000569
730.000000	0.000338
728.000000	0.000803
726.000000	0.000633
724.000000	0.000003
722.000000	-0.000490
720.000000	-0.000482
718.000000	0.000033
716.000000	0.001102
714.000000	0.003305
712.000000	0.007379
710.000000	0.013851
708.000000	0.022749
706.000000	0.033726
704.000000	0.046226
702.000000	0.060247
700.000000	0.075184
