PE IR       SUBTECH     SPECTRUM    ASCII       PEDS        4.00        
   -1
LC_9_unfl.asc
14/09/17
10:57:44.00
14/09/26
09:37:24.00
nystrom.12
Co-added spectrum 1 at -118, -597 (Image Marker 1)
700.000000
#HDR
-1
-1
#GR
cm-1
A
1.0
0.0
4000.000000
-2.000000
1651
8
0.054852
-0.127650
#DATA
4000.000000	0.022761
3998.000000	0.022140
3996.000000	0.021568
3994.000000	0.021112
3992.000000	0.020815
3990.000000	0.020699
3988.000000	0.020743
3986.000000	0.020897
3984.000000	0.021129
3982.000000	0.021390
3980.000000	0.021588
3978.000000	0.021644
3976.000000	0.021552
3974.000000	0.021348
3972.000000	0.021042
3970.000000	0.020621
3968.000000	0.020102
3966.000000	0.019562
3964.000000	0.019106
3962.000000	0.018784
3960.000000	0.018593
3958.000000	0.018508
3956.000000	0.018542
3954.000000	0.018698
3952.000000	0.018898
3950.000000	0.019034
3948.000000	0.019066
3946.000000	0.019073
3944.000000	0.019135
3942.000000	0.019244
3940.000000	0.019312
3938.000000	0.019291
3936.000000	0.019278
3934.000000	0.019383
3932.000000	0.019606
3930.000000	0.019818
3928.000000	0.019863
3926.000000	0.019721
3924.000000	0.019498
3922.000000	0.019291
3920.000000	0.019064
3918.000000	0.018764
3916.000000	0.018428
3914.000000	0.018132
3912.000000	0.017964
3910.000000	0.017965
3908.000000	0.018065
3906.000000	0.018171
3904.000000	0.018292
3902.000000	0.018464
3900.000000	0.018613
3898.000000	0.018654
3896.000000	0.018579
3894.000000	0.018399
3892.000000	0.018143
3890.000000	0.017867
3888.000000	0.017577
3886.000000	0.017268
3884.000000	0.016978
3882.000000	0.016717
3880.000000	0.016482
3878.000000	0.016295
3876.000000	0.016182
3874.000000	0.016148
3872.000000	0.016172
3870.000000	0.016224
3868.000000	0.016328
3866.000000	0.016504
3864.000000	0.016727
3862.000000	0.016918
3860.000000	0.017002
3858.000000	0.016972
3856.000000	0.016892
3854.000000	0.016880
3852.000000	0.016973
3850.000000	0.016999
3848.000000	0.016912
3846.000000	0.016784
3844.000000	0.016732
3842.000000	0.016813
3840.000000	0.016952
3838.000000	0.017020
3836.000000	0.016982
3834.000000	0.016952
3832.000000	0.017047
3830.000000	0.017269
3828.000000	0.017494
3826.000000	0.017613
3824.000000	0.017619
3822.000000	0.017599
3820.000000	0.017628
3818.000000	0.017604
3816.000000	0.017469
3814.000000	0.017260
3812.000000	0.017022
3810.000000	0.016799
3808.000000	0.016613
3806.000000	0.016464
3804.000000	0.016300
3802.000000	0.016114
3800.000000	0.015947
3798.000000	0.015802
3796.000000	0.015649
3794.000000	0.015521
3792.000000	0.015490
3790.000000	0.015557
3788.000000	0.015666
3786.000000	0.015789
3784.000000	0.015914
3782.000000	0.016043
3780.000000	0.016227
3778.000000	0.016448
3776.000000	0.016588
3774.000000	0.016639
3772.000000	0.016684
3770.000000	0.016763
3768.000000	0.016819
3766.000000	0.016732
3764.000000	0.016457
3762.000000	0.016075
3760.000000	0.015725
3758.000000	0.015466
3756.000000	0.015206
3754.000000	0.014888
3752.000000	0.014588
3750.000000	0.014521
3748.000000	0.014837
3746.000000	0.015389
3744.000000	0.016027
3742.000000	0.016572
3740.000000	0.016961
3738.000000	0.017295
3736.000000	0.017595
3734.000000	0.017679
3732.000000	0.017426
3730.000000	0.016935
3728.000000	0.016315
3726.000000	0.015719
3724.000000	0.015274
3722.000000	0.014941
3720.000000	0.014663
3718.000000	0.014457
3716.000000	0.014356
3714.000000	0.014349
3712.000000	0.014396
3710.000000	0.014432
3708.000000	0.014424
3706.000000	0.014402
3704.000000	0.014396
3702.000000	0.014447
3700.000000	0.014589
3698.000000	0.014792
3696.000000	0.014991
3694.000000	0.015147
3692.000000	0.015242
3690.000000	0.015306
3688.000000	0.015401
3686.000000	0.015442
3684.000000	0.015374
3682.000000	0.015258
3680.000000	0.015153
3678.000000	0.015110
3676.000000	0.015149
3674.000000	0.015202
3672.000000	0.015184
3670.000000	0.015133
3668.000000	0.015077
3666.000000	0.014999
3664.000000	0.014947
3662.000000	0.014964
3660.000000	0.015033
3658.000000	0.015169
3656.000000	0.015391
3654.000000	0.015642
3652.000000	0.015910
3650.000000	0.016223
3648.000000	0.016486
3646.000000	0.016546
3644.000000	0.016452
3642.000000	0.016303
3640.000000	0.016153
3638.000000	0.016022
3636.000000	0.015905
3634.000000	0.015771
3632.000000	0.015649
3630.000000	0.015627
3628.000000	0.015749
3626.000000	0.015908
3624.000000	0.015989
3622.000000	0.016022
3620.000000	0.016060
3618.000000	0.016112
3616.000000	0.016184
3614.000000	0.016274
3612.000000	0.016332
3610.000000	0.016356
3608.000000	0.016430
3606.000000	0.016583
3604.000000	0.016765
3602.000000	0.016955
3600.000000	0.017153
3598.000000	0.017334
3596.000000	0.017498
3594.000000	0.017652
3592.000000	0.017738
3590.000000	0.017710
3588.000000	0.017595
3586.000000	0.017427
3584.000000	0.017174
3582.000000	0.016814
3580.000000	0.016413
3578.000000	0.016048
3576.000000	0.015776
3574.000000	0.015635
3572.000000	0.015567
3570.000000	0.015494
3568.000000	0.015436
3566.000000	0.015519
3564.000000	0.015754
3562.000000	0.015984
3560.000000	0.016155
3558.000000	0.016304
3556.000000	0.016462
3554.000000	0.016664
3552.000000	0.016953
3550.000000	0.017287
3548.000000	0.017570
3546.000000	0.017817
3544.000000	0.018071
3542.000000	0.018292
3540.000000	0.018424
3538.000000	0.018454
3536.000000	0.018387
3534.000000	0.018231
3532.000000	0.018009
3530.000000	0.017755
3528.000000	0.017483
3526.000000	0.017226
3524.000000	0.017054
3522.000000	0.016961
3520.000000	0.016886
3518.000000	0.016796
3516.000000	0.016718
3514.000000	0.016695
3512.000000	0.016704
3510.000000	0.016704
3508.000000	0.016669
3506.000000	0.016590
3504.000000	0.016519
3502.000000	0.016504
3500.000000	0.016495
3498.000000	0.016438
3496.000000	0.016374
3494.000000	0.016363
3492.000000	0.016401
3490.000000	0.016492
3488.000000	0.016632
3486.000000	0.016763
3484.000000	0.016879
3482.000000	0.017043
3480.000000	0.017220
3478.000000	0.017316
3476.000000	0.017329
3474.000000	0.017303
3472.000000	0.017269
3470.000000	0.017285
3468.000000	0.017372
3466.000000	0.017477
3464.000000	0.017568
3462.000000	0.017706
3460.000000	0.017923
3458.000000	0.018201
3456.000000	0.018462
3454.000000	0.018577
3452.000000	0.018526
3450.000000	0.018398
3448.000000	0.018253
3446.000000	0.018065
3444.000000	0.017794
3442.000000	0.017461
3440.000000	0.017102
3438.000000	0.016768
3436.000000	0.016498
3434.000000	0.016284
3432.000000	0.016120
3430.000000	0.016028
3428.000000	0.016017
3426.000000	0.016051
3424.000000	0.016101
3422.000000	0.016172
3420.000000	0.016309
3418.000000	0.016547
3416.000000	0.016826
3414.000000	0.017046
3412.000000	0.017167
3410.000000	0.017229
3408.000000	0.017282
3406.000000	0.017333
3404.000000	0.017336
3402.000000	0.017269
3400.000000	0.017174
3398.000000	0.017110
3396.000000	0.017109
3394.000000	0.017166
3392.000000	0.017252
3390.000000	0.017321
3388.000000	0.017367
3386.000000	0.017407
3384.000000	0.017419
3382.000000	0.017385
3380.000000	0.017320
3378.000000	0.017224
3376.000000	0.017084
3374.000000	0.016928
3372.000000	0.016790
3370.000000	0.016682
3368.000000	0.016567
3366.000000	0.016403
3364.000000	0.016224
3362.000000	0.016128
3360.000000	0.016150
3358.000000	0.016250
3356.000000	0.016405
3354.000000	0.016594
3352.000000	0.016802
3350.000000	0.017052
3348.000000	0.017315
3346.000000	0.017487
3344.000000	0.017494
3342.000000	0.017338
3340.000000	0.017050
3338.000000	0.016676
3336.000000	0.016270
3334.000000	0.015870
3332.000000	0.015522
3330.000000	0.015256
3328.000000	0.015078
3326.000000	0.015025
3324.000000	0.015133
3322.000000	0.015354
3320.000000	0.015608
3318.000000	0.015858
3316.000000	0.016085
3314.000000	0.016272
3312.000000	0.016430
3310.000000	0.016552
3308.000000	0.016616
3306.000000	0.016622
3304.000000	0.016619
3302.000000	0.016649
3300.000000	0.016685
3298.000000	0.016672
3296.000000	0.016608
3294.000000	0.016516
3292.000000	0.016408
3290.000000	0.016278
3288.000000	0.016097
3286.000000	0.015817
3284.000000	0.015448
3282.000000	0.015087
3280.000000	0.014799
3278.000000	0.014568
3276.000000	0.014380
3274.000000	0.014262
3272.000000	0.014263
3270.000000	0.014402
3268.000000	0.014644
3266.000000	0.014933
3264.000000	0.015251
3262.000000	0.015589
3260.000000	0.015917
3258.000000	0.016196
3256.000000	0.016407
3254.000000	0.016556
3252.000000	0.016649
3250.000000	0.016710
3248.000000	0.016739
3246.000000	0.016707
3244.000000	0.016656
3242.000000	0.016667
3240.000000	0.016726
3238.000000	0.016775
3236.000000	0.016808
3234.000000	0.016836
3232.000000	0.016841
3230.000000	0.016814
3228.000000	0.016746
3226.000000	0.016607
3224.000000	0.016396
3222.000000	0.016145
3220.000000	0.015874
3218.000000	0.015582
3216.000000	0.015296
3214.000000	0.015043
3212.000000	0.014818
3210.000000	0.014619
3208.000000	0.014457
3206.000000	0.014344
3204.000000	0.014272
3202.000000	0.014217
3200.000000	0.014190
3198.000000	0.014208
3196.000000	0.014246
3194.000000	0.014297
3192.000000	0.014380
3190.000000	0.014469
3188.000000	0.014529
3186.000000	0.014560
3184.000000	0.014573
3182.000000	0.014572
3180.000000	0.014572
3178.000000	0.014574
3176.000000	0.014558
3174.000000	0.014507
3172.000000	0.014439
3170.000000	0.014412
3168.000000	0.014444
3166.000000	0.014473
3164.000000	0.014438
3162.000000	0.014331
3160.000000	0.014194
3158.000000	0.014071
3156.000000	0.013959
3154.000000	0.013791
3152.000000	0.013517
3150.000000	0.013174
3148.000000	0.012843
3146.000000	0.012591
3144.000000	0.012411
3142.000000	0.012275
3140.000000	0.012197
3138.000000	0.012202
3136.000000	0.012299
3134.000000	0.012480
3132.000000	0.012715
3130.000000	0.012986
3128.000000	0.013265
3126.000000	0.013511
3124.000000	0.013694
3122.000000	0.013801
3120.000000	0.013850
3118.000000	0.013873
3116.000000	0.013889
3114.000000	0.013886
3112.000000	0.013856
3110.000000	0.013822
3108.000000	0.013792
3106.000000	0.013768
3104.000000	0.013754
3102.000000	0.013732
3100.000000	0.013688
3098.000000	0.013625
3096.000000	0.013556
3094.000000	0.013501
3092.000000	0.013467
3090.000000	0.013436
3088.000000	0.013408
3086.000000	0.013397
3084.000000	0.013375
3082.000000	0.013330
3080.000000	0.013287
3078.000000	0.013241
3076.000000	0.013173
3074.000000	0.013098
3072.000000	0.013037
3070.000000	0.013001
3068.000000	0.012997
3066.000000	0.013013
3064.000000	0.013016
3062.000000	0.013002
3060.000000	0.012997
3058.000000	0.012996
3056.000000	0.012985
3054.000000	0.012950
3052.000000	0.012882
3050.000000	0.012800
3048.000000	0.012734
3046.000000	0.012695
3044.000000	0.012679
3042.000000	0.012673
3040.000000	0.012664
3038.000000	0.012648
3036.000000	0.012629
3034.000000	0.012616
3032.000000	0.012616
3030.000000	0.012626
3028.000000	0.012626
3026.000000	0.012612
3024.000000	0.012611
3022.000000	0.012622
3020.000000	0.012648
3018.000000	0.012704
3016.000000	0.012747
3014.000000	0.012745
3012.000000	0.012724
3010.000000	0.012674
3008.000000	0.012589
3006.000000	0.012525
3004.000000	0.012501
3002.000000	0.012487
3000.000000	0.012491
2998.000000	0.012553
2996.000000	0.012668
2994.000000	0.012797
2992.000000	0.012931
2990.000000	0.013054
2988.000000	0.013120
2986.000000	0.013121
2984.000000	0.013088
2982.000000	0.013040
2980.000000	0.012959
2978.000000	0.012819
2976.000000	0.012627
2974.000000	0.012450
2972.000000	0.012345
2970.000000	0.012299
2968.000000	0.012266
2966.000000	0.012206
2964.000000	0.012128
2962.000000	0.012126
2960.000000	0.012273
2958.000000	0.012497
2956.000000	0.012700
2954.000000	0.012869
2952.000000	0.013031
2950.000000	0.013223
2948.000000	0.013449
2946.000000	0.013652
2944.000000	0.013764
2942.000000	0.013781
2940.000000	0.013733
2938.000000	0.013642
2936.000000	0.013530
2934.000000	0.013416
2932.000000	0.013287
2930.000000	0.013131
2928.000000	0.012964
2926.000000	0.012777
2924.000000	0.012558
2922.000000	0.012338
2920.000000	0.012119
2918.000000	0.011871
2916.000000	0.011578
2914.000000	0.011242
2912.000000	0.010863
2910.000000	0.010438
2908.000000	0.009994
2906.000000	0.009567
2904.000000	0.009132
2902.000000	0.008654
2900.000000	0.008169
2898.000000	0.007738
2896.000000	0.007368
2894.000000	0.007083
2892.000000	0.006911
2890.000000	0.006788
2888.000000	0.006658
2886.000000	0.006531
2884.000000	0.006407
2882.000000	0.006266
2880.000000	0.006129
2878.000000	0.005999
2876.000000	0.005818
2874.000000	0.005600
2872.000000	0.005441
2870.000000	0.005373
2868.000000	0.005376
2866.000000	0.005452
2864.000000	0.005579
2862.000000	0.005707
2860.000000	0.005825
2858.000000	0.005946
2856.000000	0.006042
2854.000000	0.006079
2852.000000	0.006050
2850.000000	0.005920
2848.000000	0.005653
2846.000000	0.005278
2844.000000	0.004837
2842.000000	0.004356
2840.000000	0.003854
2838.000000	0.003361
2836.000000	0.002911
2834.000000	0.002527
2832.000000	0.002226
2830.000000	0.001996
2828.000000	0.001834
2826.000000	0.001734
2824.000000	0.001649
2822.000000	0.001529
2820.000000	0.001348
2818.000000	0.001112
2816.000000	0.000850
2814.000000	0.000578
2812.000000	0.000302
2810.000000	0.000025
2808.000000	-0.000221
2806.000000	-0.000410
2804.000000	-0.000548
2802.000000	-0.000653
2800.000000	-0.000731
2798.000000	-0.000788
2796.000000	-0.000844
2794.000000	-0.000902
2792.000000	-0.000948
2790.000000	-0.000979
2788.000000	-0.001014
2786.000000	-0.001057
2784.000000	-0.001086
2782.000000	-0.001073
2780.000000	-0.001004
2778.000000	-0.000899
2776.000000	-0.000784
2774.000000	-0.000672
2772.000000	-0.000575
2770.000000	-0.000504
2768.000000	-0.000463
2766.000000	-0.000471
2764.000000	-0.000533
2762.000000	-0.000645
2760.000000	-0.000820
2758.000000	-0.001042
2756.000000	-0.001237
2754.000000	-0.001355
2752.000000	-0.001391
2750.000000	-0.001367
2748.000000	-0.001322
2746.000000	-0.001274
2744.000000	-0.001191
2742.000000	-0.001052
2740.000000	-0.000902
2738.000000	-0.000813
2736.000000	-0.000802
2734.000000	-0.000832
2732.000000	-0.000866
2730.000000	-0.000909
2728.000000	-0.000970
2726.000000	-0.001045
2724.000000	-0.001120
2722.000000	-0.001192
2720.000000	-0.001276
2718.000000	-0.001396
2716.000000	-0.001568
2714.000000	-0.001765
2712.000000	-0.001938
2710.000000	-0.002070
2708.000000	-0.002195
2706.000000	-0.002354
2704.000000	-0.002523
2702.000000	-0.002648
2700.000000	-0.002703
2698.000000	-0.002709
2696.000000	-0.002708
2694.000000	-0.002729
2692.000000	-0.002784
2690.000000	-0.002859
2688.000000	-0.002917
2686.000000	-0.002944
2684.000000	-0.002957
2682.000000	-0.002958
2680.000000	-0.002936
2678.000000	-0.002893
2676.000000	-0.002827
2674.000000	-0.002707
2672.000000	-0.002521
2670.000000	-0.002298
2668.000000	-0.002080
2666.000000	-0.001889
2664.000000	-0.001712
2662.000000	-0.001542
2660.000000	-0.001397
2658.000000	-0.001312
2656.000000	-0.001309
2654.000000	-0.001373
2652.000000	-0.001471
2650.000000	-0.001563
2648.000000	-0.001646
2646.000000	-0.001743
2644.000000	-0.001870
2642.000000	-0.002001
2640.000000	-0.002100
2638.000000	-0.002185
2636.000000	-0.002307
2634.000000	-0.002481
2632.000000	-0.002705
2630.000000	-0.002963
2628.000000	-0.003208
2626.000000	-0.003427
2624.000000	-0.003639
2622.000000	-0.003825
2620.000000	-0.003934
2618.000000	-0.003935
2616.000000	-0.003847
2614.000000	-0.003712
2612.000000	-0.003560
2610.000000	-0.003383
2608.000000	-0.003161
2606.000000	-0.002918
2604.000000	-0.002710
2602.000000	-0.002571
2600.000000	-0.002477
2598.000000	-0.002374
2596.000000	-0.002232
2594.000000	-0.002092
2592.000000	-0.002005
2590.000000	-0.001959
2588.000000	-0.001898
2586.000000	-0.001775
2584.000000	-0.001612
2582.000000	-0.001464
2580.000000	-0.001350
2578.000000	-0.001252
2576.000000	-0.001145
2574.000000	-0.001042
2572.000000	-0.000984
2570.000000	-0.001007
2568.000000	-0.001101
2566.000000	-0.001207
2564.000000	-0.001300
2562.000000	-0.001413
2560.000000	-0.001550
2558.000000	-0.001665
2556.000000	-0.001733
2554.000000	-0.001742
2552.000000	-0.001710
2550.000000	-0.001687
2548.000000	-0.001711
2546.000000	-0.001776
2544.000000	-0.001869
2542.000000	-0.002008
2540.000000	-0.002220
2538.000000	-0.002508
2536.000000	-0.002844
2534.000000	-0.003206
2532.000000	-0.003604
2530.000000	-0.004016
2528.000000	-0.004383
2526.000000	-0.004682
2524.000000	-0.004929
2522.000000	-0.005138
2520.000000	-0.005315
2518.000000	-0.005442
2516.000000	-0.005483
2514.000000	-0.005431
2512.000000	-0.005345
2510.000000	-0.005274
2508.000000	-0.005204
2506.000000	-0.005111
2504.000000	-0.005030
2502.000000	-0.004993
2500.000000	-0.005017
2498.000000	-0.005131
2496.000000	-0.005325
2494.000000	-0.005573
2492.000000	-0.005887
2490.000000	-0.006291
2488.000000	-0.006779
2486.000000	-0.007334
2484.000000	-0.007953
2482.000000	-0.008617
2480.000000	-0.009309
2478.000000	-0.010027
2476.000000	-0.010736
2474.000000	-0.011392
2472.000000	-0.011987
2470.000000	-0.012522
2468.000000	-0.012970
2466.000000	-0.013317
2464.000000	-0.013584
2462.000000	-0.013825
2460.000000	-0.014097
2458.000000	-0.014429
2456.000000	-0.014810
2454.000000	-0.015214
2452.000000	-0.015648
2450.000000	-0.016147
2448.000000	-0.016714
2446.000000	-0.017292
2444.000000	-0.017802
2442.000000	-0.018230
2440.000000	-0.018615
2438.000000	-0.018970
2436.000000	-0.019290
2434.000000	-0.019574
2432.000000	-0.019824
2430.000000	-0.020061
2428.000000	-0.020325
2426.000000	-0.020619
2424.000000	-0.020899
2422.000000	-0.021169
2420.000000	-0.021478
2418.000000	-0.021841
2416.000000	-0.022228
2414.000000	-0.022609
2412.000000	-0.022970
2410.000000	-0.023333
2408.000000	-0.023730
2406.000000	-0.024180
2404.000000	-0.024654
2402.000000	-0.025100
2400.000000	-0.025495
2398.000000	-0.025849
2396.000000	-0.026196
2394.000000	-0.026529
2392.000000	-0.026798
2390.000000	-0.026976
2388.000000	-0.027072
2386.000000	-0.027126
2384.000000	-0.027196
2382.000000	-0.027323
2380.000000	-0.027499
2378.000000	-0.027696
2376.000000	-0.027900
2374.000000	-0.028125
2372.000000	-0.028379
2370.000000	-0.028641
2368.000000	-0.028875
2366.000000	-0.029025
2364.000000	-0.029065
2362.000000	-0.029029
2360.000000	-0.028979
2358.000000	-0.028955
2356.000000	-0.028978
2354.000000	-0.029125
2352.000000	-0.029417
2350.000000	-0.029799
2348.000000	-0.030236
2346.000000	-0.030733
2344.000000	-0.031319
2342.000000	-0.031991
2340.000000	-0.032671
2338.000000	-0.033243
2336.000000	-0.033669
2334.000000	-0.034000
2332.000000	-0.034307
2330.000000	-0.034629
2328.000000	-0.034925
2326.000000	-0.035126
2324.000000	-0.035271
2322.000000	-0.035508
2320.000000	-0.035895
2318.000000	-0.036363
2316.000000	-0.036864
2314.000000	-0.037362
2312.000000	-0.037829
2310.000000	-0.038291
2308.000000	-0.038771
2306.000000	-0.039222
2304.000000	-0.039599
2302.000000	-0.039924
2300.000000	-0.040220
2298.000000	-0.040496
2296.000000	-0.040795
2294.000000	-0.041133
2292.000000	-0.041474
2290.000000	-0.041799
2288.000000	-0.042094
2286.000000	-0.042351
2284.000000	-0.042588
2282.000000	-0.042809
2280.000000	-0.042989
2278.000000	-0.043138
2276.000000	-0.043273
2274.000000	-0.043389
2272.000000	-0.043510
2270.000000	-0.043656
2268.000000	-0.043808
2266.000000	-0.043981
2264.000000	-0.044218
2262.000000	-0.044492
2260.000000	-0.044766
2258.000000	-0.045045
2256.000000	-0.045336
2254.000000	-0.045640
2252.000000	-0.045969
2250.000000	-0.046319
2248.000000	-0.046647
2246.000000	-0.046936
2244.000000	-0.047204
2242.000000	-0.047457
2240.000000	-0.047704
2238.000000	-0.047960
2236.000000	-0.048205
2234.000000	-0.048406
2232.000000	-0.048571
2230.000000	-0.048734
2228.000000	-0.048926
2226.000000	-0.049150
2224.000000	-0.049386
2222.000000	-0.049607
2220.000000	-0.049787
2218.000000	-0.049939
2216.000000	-0.050074
2214.000000	-0.050186
2212.000000	-0.050290
2210.000000	-0.050403
2208.000000	-0.050508
2206.000000	-0.050601
2204.000000	-0.050722
2202.000000	-0.050902
2200.000000	-0.051145
2198.000000	-0.051423
2196.000000	-0.051700
2194.000000	-0.051946
2192.000000	-0.052151
2190.000000	-0.052331
2188.000000	-0.052484
2186.000000	-0.052585
2184.000000	-0.052619
2182.000000	-0.052596
2180.000000	-0.052524
2178.000000	-0.052425
2176.000000	-0.052353
2174.000000	-0.052335
2172.000000	-0.052335
2170.000000	-0.052336
2168.000000	-0.052363
2166.000000	-0.052422
2164.000000	-0.052515
2162.000000	-0.052629
2160.000000	-0.052718
2158.000000	-0.052754
2156.000000	-0.052766
2154.000000	-0.052773
2152.000000	-0.052762
2150.000000	-0.052734
2148.000000	-0.052708
2146.000000	-0.052692
2144.000000	-0.052688
2142.000000	-0.052702
2140.000000	-0.052721
2138.000000	-0.052718
2136.000000	-0.052687
2134.000000	-0.052645
2132.000000	-0.052581
2130.000000	-0.052473
2128.000000	-0.052335
2126.000000	-0.052196
2124.000000	-0.052058
2122.000000	-0.051928
2120.000000	-0.051820
2118.000000	-0.051737
2116.000000	-0.051677
2114.000000	-0.051644
2112.000000	-0.051641
2110.000000	-0.051657
2108.000000	-0.051676
2106.000000	-0.051686
2104.000000	-0.051679
2102.000000	-0.051655
2100.000000	-0.051610
2098.000000	-0.051540
2096.000000	-0.051437
2094.000000	-0.051305
2092.000000	-0.051157
2090.000000	-0.051003
2088.000000	-0.050846
2086.000000	-0.050683
2084.000000	-0.050525
2082.000000	-0.050383
2080.000000	-0.050266
2078.000000	-0.050172
2076.000000	-0.050089
2074.000000	-0.049998
2072.000000	-0.049895
2070.000000	-0.049786
2068.000000	-0.049682
2066.000000	-0.049583
2064.000000	-0.049475
2062.000000	-0.049356
2060.000000	-0.049223
2058.000000	-0.049077
2056.000000	-0.048931
2054.000000	-0.048801
2052.000000	-0.048678
2050.000000	-0.048539
2048.000000	-0.048377
2046.000000	-0.048194
2044.000000	-0.048002
2042.000000	-0.047821
2040.000000	-0.047666
2038.000000	-0.047538
2036.000000	-0.047411
2034.000000	-0.047280
2032.000000	-0.047173
2030.000000	-0.047113
2028.000000	-0.047099
2026.000000	-0.047117
2024.000000	-0.047134
2022.000000	-0.047123
2020.000000	-0.047088
2018.000000	-0.047040
2016.000000	-0.046966
2014.000000	-0.046845
2012.000000	-0.046662
2010.000000	-0.046415
2008.000000	-0.046130
2006.000000	-0.045839
2004.000000	-0.045545
2002.000000	-0.045240
2000.000000	-0.044944
1998.000000	-0.044694
1996.000000	-0.044517
1994.000000	-0.044420
1992.000000	-0.044382
1990.000000	-0.044372
1988.000000	-0.044403
1986.000000	-0.044500
1984.000000	-0.044651
1982.000000	-0.044805
1980.000000	-0.044911
1978.000000	-0.044968
1976.000000	-0.044998
1974.000000	-0.045001
1972.000000	-0.044957
1970.000000	-0.044858
1968.000000	-0.044713
1966.000000	-0.044553
1964.000000	-0.044407
1962.000000	-0.044264
1960.000000	-0.044099
1958.000000	-0.043918
1956.000000	-0.043739
1954.000000	-0.043562
1952.000000	-0.043396
1950.000000	-0.043243
1948.000000	-0.043089
1946.000000	-0.042936
1944.000000	-0.042797
1942.000000	-0.042668
1940.000000	-0.042554
1938.000000	-0.042462
1936.000000	-0.042370
1934.000000	-0.042256
1932.000000	-0.042118
1930.000000	-0.041961
1928.000000	-0.041797
1926.000000	-0.041635
1924.000000	-0.041472
1922.000000	-0.041290
1920.000000	-0.041094
1918.000000	-0.040910
1916.000000	-0.040760
1914.000000	-0.040632
1912.000000	-0.040485
1910.000000	-0.040314
1908.000000	-0.040144
1906.000000	-0.039987
1904.000000	-0.039830
1902.000000	-0.039652
1900.000000	-0.039439
1898.000000	-0.039188
1896.000000	-0.038935
1894.000000	-0.038703
1892.000000	-0.038469
1890.000000	-0.038209
1888.000000	-0.037927
1886.000000	-0.037639
1884.000000	-0.037331
1882.000000	-0.036989
1880.000000	-0.036619
1878.000000	-0.036225
1876.000000	-0.035806
1874.000000	-0.035376
1872.000000	-0.034946
1870.000000	-0.034513
1868.000000	-0.034096
1866.000000	-0.033719
1864.000000	-0.033355
1862.000000	-0.032963
1860.000000	-0.032536
1858.000000	-0.032074
1856.000000	-0.031564
1854.000000	-0.030996
1852.000000	-0.030374
1850.000000	-0.029703
1848.000000	-0.029028
1846.000000	-0.028403
1844.000000	-0.027829
1842.000000	-0.027294
1840.000000	-0.026814
1838.000000	-0.026407
1836.000000	-0.026081
1834.000000	-0.025826
1832.000000	-0.025603
1830.000000	-0.025362
1828.000000	-0.025095
1826.000000	-0.024822
1824.000000	-0.024539
1822.000000	-0.024237
1820.000000	-0.023894
1818.000000	-0.023489
1816.000000	-0.023034
1814.000000	-0.022569
1812.000000	-0.022119
1810.000000	-0.021696
1808.000000	-0.021317
1806.000000	-0.020976
1804.000000	-0.020680
1802.000000	-0.020459
1800.000000	-0.020331
1798.000000	-0.020294
1796.000000	-0.020331
1794.000000	-0.020414
1792.000000	-0.020512
1790.000000	-0.020617
1788.000000	-0.020737
1786.000000	-0.020870
1784.000000	-0.021003
1782.000000	-0.021107
1780.000000	-0.021150
1778.000000	-0.021127
1776.000000	-0.021053
1774.000000	-0.020964
1772.000000	-0.020876
1770.000000	-0.020769
1768.000000	-0.020626
1766.000000	-0.020442
1764.000000	-0.020233
1762.000000	-0.020039
1760.000000	-0.019889
1758.000000	-0.019757
1756.000000	-0.019616
1754.000000	-0.019461
1752.000000	-0.019292
1750.000000	-0.019110
1748.000000	-0.018943
1746.000000	-0.018794
1744.000000	-0.018637
1742.000000	-0.018465
1740.000000	-0.018279
1738.000000	-0.018082
1736.000000	-0.017910
1734.000000	-0.017797
1732.000000	-0.017751
1730.000000	-0.017742
1728.000000	-0.017773
1726.000000	-0.017839
1724.000000	-0.017918
1722.000000	-0.018002
1720.000000	-0.018072
1718.000000	-0.018091
1716.000000	-0.018045
1714.000000	-0.017942
1712.000000	-0.017752
1710.000000	-0.017465
1708.000000	-0.017110
1706.000000	-0.016723
1704.000000	-0.016323
1702.000000	-0.015906
1700.000000	-0.015477
1698.000000	-0.015054
1696.000000	-0.014655
1694.000000	-0.014284
1692.000000	-0.013947
1690.000000	-0.013648
1688.000000	-0.013369
1686.000000	-0.013098
1684.000000	-0.012878
1682.000000	-0.012741
1680.000000	-0.012619
1678.000000	-0.012483
1676.000000	-0.012338
1674.000000	-0.012165
1672.000000	-0.011939
1670.000000	-0.011669
1668.000000	-0.011323
1666.000000	-0.010853
1664.000000	-0.010298
1662.000000	-0.009705
1660.000000	-0.009085
1658.000000	-0.008442
1656.000000	-0.007801
1654.000000	-0.007187
1652.000000	-0.006636
1650.000000	-0.006157
1648.000000	-0.005700
1646.000000	-0.005248
1644.000000	-0.004789
1642.000000	-0.004307
1640.000000	-0.003761
1638.000000	-0.003106
1636.000000	-0.002315
1634.000000	-0.001442
1632.000000	-0.000520
1630.000000	0.000493
1628.000000	0.001620
1626.000000	0.002850
1624.000000	0.004166
1622.000000	0.005547
1620.000000	0.006953
1618.000000	0.008413
1616.000000	0.009983
1614.000000	0.011630
1612.000000	0.013314
1610.000000	0.015048
1608.000000	0.016849
1606.000000	0.018730
1604.000000	0.020690
1602.000000	0.022729
1600.000000	0.024836
1598.000000	0.026991
1596.000000	0.029166
1594.000000	0.031326
1592.000000	0.033441
1590.000000	0.035491
1588.000000	0.037453
1586.000000	0.039280
1584.000000	0.040912
1582.000000	0.042325
1580.000000	0.043523
1578.000000	0.044519
1576.000000	0.045325
1574.000000	0.045936
1572.000000	0.046410
1570.000000	0.046825
1568.000000	0.047244
1566.000000	0.047682
1564.000000	0.048134
1562.000000	0.048633
1560.000000	0.049228
1558.000000	0.049901
1556.000000	0.050505
1554.000000	0.050997
1552.000000	0.051377
1550.000000	0.051668
1548.000000	0.051910
1546.000000	0.052100
1544.000000	0.052167
1542.000000	0.052071
1540.000000	0.051919
1538.000000	0.051814
1536.000000	0.051733
1534.000000	0.051644
1532.000000	0.051512
1530.000000	0.051329
1528.000000	0.051138
1526.000000	0.050986
1524.000000	0.050861
1522.000000	0.050716
1520.000000	0.050559
1518.000000	0.050456
1516.000000	0.050439
1514.000000	0.050515
1512.000000	0.050673
1510.000000	0.050891
1508.000000	0.051147
1506.000000	0.051437
1504.000000	0.051743
1502.000000	0.052045
1500.000000	0.052337
1498.000000	0.052622
1496.000000	0.052901
1494.000000	0.053179
1492.000000	0.053455
1490.000000	0.053734
1488.000000	0.054029
1486.000000	0.054314
1484.000000	0.054559
1482.000000	0.054741
1480.000000	0.054839
1478.000000	0.054852
1476.000000	0.054811
1474.000000	0.054749
1472.000000	0.054656
1470.000000	0.054513
1468.000000	0.054354
1466.000000	0.054218
1464.000000	0.054116
1462.000000	0.054043
1460.000000	0.053980
1458.000000	0.053905
1456.000000	0.053812
1454.000000	0.053738
1452.000000	0.053721
1450.000000	0.053759
1448.000000	0.053829
1446.000000	0.053921
1444.000000	0.054035
1442.000000	0.054182
1440.000000	0.054351
1438.000000	0.054512
1436.000000	0.054634
1434.000000	0.054692
1432.000000	0.054689
1430.000000	0.054635
1428.000000	0.054535
1426.000000	0.054375
1424.000000	0.054138
1422.000000	0.053831
1420.000000	0.053468
1418.000000	0.053030
1416.000000	0.052479
1414.000000	0.051790
1412.000000	0.050895
1410.000000	0.049741
1408.000000	0.048350
1406.000000	0.046786
1404.000000	0.045103
1402.000000	0.043358
1400.000000	0.041633
1398.000000	0.040001
1396.000000	0.038584
1394.000000	0.037549
1392.000000	0.036986
1390.000000	0.036825
1388.000000	0.036948
1386.000000	0.037231
1384.000000	0.037592
1382.000000	0.038008
1380.000000	0.038467
1378.000000	0.038931
1376.000000	0.039351
1374.000000	0.039732
1372.000000	0.040134
1370.000000	0.040618
1368.000000	0.041217
1366.000000	0.041927
1364.000000	0.042725
1362.000000	0.043566
1360.000000	0.044409
1358.000000	0.045265
1356.000000	0.046155
1354.000000	0.047056
1352.000000	0.047948
1350.000000	0.048829
1348.000000	0.049683
1346.000000	0.050491
1344.000000	0.051253
1342.000000	0.051945
1340.000000	0.052501
1338.000000	0.052880
1336.000000	0.053088
1334.000000	0.053112
1332.000000	0.052926
1330.000000	0.052526
1328.000000	0.051916
1326.000000	0.051097
1324.000000	0.050087
1322.000000	0.048915
1320.000000	0.047591
1318.000000	0.046123
1316.000000	0.044531
1314.000000	0.042841
1312.000000	0.041083
1310.000000	0.039274
1308.000000	0.037435
1306.000000	0.035588
1304.000000	0.033757
1302.000000	0.031964
1300.000000	0.030226
1298.000000	0.028544
1296.000000	0.026911
1294.000000	0.025329
1292.000000	0.023810
1290.000000	0.022356
1288.000000	0.020963
1286.000000	0.019616
1284.000000	0.018311
1282.000000	0.017065
1280.000000	0.015907
1278.000000	0.014831
1276.000000	0.013816
1274.000000	0.012857
1272.000000	0.011971
1270.000000	0.011169
1268.000000	0.010450
1266.000000	0.009795
1264.000000	0.009177
1262.000000	0.008583
1260.000000	0.008021
1258.000000	0.007503
1256.000000	0.007023
1254.000000	0.006553
1252.000000	0.006073
1250.000000	0.005593
1248.000000	0.005126
1246.000000	0.004687
1244.000000	0.004286
1242.000000	0.003909
1240.000000	0.003540
1238.000000	0.003193
1236.000000	0.002887
1234.000000	0.002611
1232.000000	0.002358
1230.000000	0.002123
1228.000000	0.001895
1226.000000	0.001672
1224.000000	0.001465
1222.000000	0.001257
1220.000000	0.001021
1218.000000	0.000772
1216.000000	0.000540
1214.000000	0.000320
1212.000000	0.000093
1210.000000	-0.000152
1208.000000	-0.000407
1206.000000	-0.000660
1204.000000	-0.000899
1202.000000	-0.001118
1200.000000	-0.001345
1198.000000	-0.001602
1196.000000	-0.001883
1194.000000	-0.002176
1192.000000	-0.002480
1190.000000	-0.002801
1188.000000	-0.003154
1186.000000	-0.003544
1184.000000	-0.003940
1182.000000	-0.004320
1180.000000	-0.004685
1178.000000	-0.005032
1176.000000	-0.005362
1174.000000	-0.005677
1172.000000	-0.005966
1170.000000	-0.006213
1168.000000	-0.006444
1166.000000	-0.006691
1164.000000	-0.006940
1162.000000	-0.007166
1160.000000	-0.007365
1158.000000	-0.007542
1156.000000	-0.007698
1154.000000	-0.007851
1152.000000	-0.007993
1150.000000	-0.008102
1148.000000	-0.008187
1146.000000	-0.008266
1144.000000	-0.008343
1142.000000	-0.008422
1140.000000	-0.008521
1138.000000	-0.008646
1136.000000	-0.008794
1134.000000	-0.008977
1132.000000	-0.009207
1130.000000	-0.009496
1128.000000	-0.009858
1126.000000	-0.010294
1124.000000	-0.010785
1122.000000	-0.011316
1120.000000	-0.011886
1118.000000	-0.012503
1116.000000	-0.013158
1114.000000	-0.013848
1112.000000	-0.014566
1110.000000	-0.015292
1108.000000	-0.016009
1106.000000	-0.016699
1104.000000	-0.017325
1102.000000	-0.017844
1100.000000	-0.018244
1098.000000	-0.018550
1096.000000	-0.018790
1094.000000	-0.018992
1092.000000	-0.019200
1090.000000	-0.019485
1088.000000	-0.019949
1086.000000	-0.020682
1084.000000	-0.021701
1082.000000	-0.022947
1080.000000	-0.024341
1078.000000	-0.025848
1076.000000	-0.027445
1074.000000	-0.029069
1072.000000	-0.030643
1070.000000	-0.032116
1068.000000	-0.033473
1066.000000	-0.034741
1064.000000	-0.035953
1062.000000	-0.037108
1060.000000	-0.038205
1058.000000	-0.039284
1056.000000	-0.040370
1054.000000	-0.041464
1052.000000	-0.042566
1050.000000	-0.043675
1048.000000	-0.044789
1046.000000	-0.045913
1044.000000	-0.047066
1042.000000	-0.048251
1040.000000	-0.049434
1038.000000	-0.050601
1036.000000	-0.051762
1034.000000	-0.052927
1032.000000	-0.054104
1030.000000	-0.055300
1028.000000	-0.056514
1026.000000	-0.057736
1024.000000	-0.058971
1022.000000	-0.060242
1020.000000	-0.061550
1018.000000	-0.062890
1016.000000	-0.064255
1014.000000	-0.065636
1012.000000	-0.067022
1010.000000	-0.068391
1008.000000	-0.069720
1006.000000	-0.070999
1004.000000	-0.072215
1002.000000	-0.073357
1000.000000	-0.074423
998.000000	-0.075409
996.000000	-0.076324
994.000000	-0.077188
992.000000	-0.078029
990.000000	-0.078870
988.000000	-0.079704
986.000000	-0.080524
984.000000	-0.081328
982.000000	-0.082114
980.000000	-0.082874
978.000000	-0.083606
976.000000	-0.084311
974.000000	-0.084986
972.000000	-0.085646
970.000000	-0.086323
968.000000	-0.087024
966.000000	-0.087734
964.000000	-0.088449
962.000000	-0.089157
960.000000	-0.089849
958.000000	-0.090530
956.000000	-0.091189
954.000000	-0.091804
952.000000	-0.092379
950.000000	-0.092938
948.000000	-0.093507
946.000000	-0.094111
944.000000	-0.094751
942.000000	-0.095408
940.000000	-0.096082
938.000000	-0.096769
936.000000	-0.097460
934.000000	-0.098160
932.000000	-0.098852
930.000000	-0.099500
928.000000	-0.100101
926.000000	-0.100668
924.000000	-0.101190
922.000000	-0.101658
920.000000	-0.102071
918.000000	-0.102420
916.000000	-0.102698
914.000000	-0.102920
912.000000	-0.103103
910.000000	-0.103242
908.000000	-0.103337
906.000000	-0.103390
904.000000	-0.103394
902.000000	-0.103317
900.000000	-0.103138
898.000000	-0.102818
896.000000	-0.102300
894.000000	-0.101517
892.000000	-0.100384
890.000000	-0.098803
888.000000	-0.096708
886.000000	-0.094076
884.000000	-0.090925
882.000000	-0.087325
880.000000	-0.083371
878.000000	-0.079144
876.000000	-0.074768
874.000000	-0.070454
872.000000	-0.066439
870.000000	-0.062917
868.000000	-0.060043
866.000000	-0.057922
864.000000	-0.056584
862.000000	-0.056032
860.000000	-0.056297
858.000000	-0.057442
856.000000	-0.059501
854.000000	-0.062370
852.000000	-0.065852
850.000000	-0.069763
848.000000	-0.073961
846.000000	-0.078359
844.000000	-0.082896
842.000000	-0.087437
840.000000	-0.091777
838.000000	-0.095783
836.000000	-0.099445
834.000000	-0.102778
832.000000	-0.105776
830.000000	-0.108440
828.000000	-0.110759
826.000000	-0.112741
824.000000	-0.114411
822.000000	-0.115806
820.000000	-0.116976
818.000000	-0.117987
816.000000	-0.118919
814.000000	-0.119814
812.000000	-0.120694
810.000000	-0.121583
808.000000	-0.122490
806.000000	-0.123409
804.000000	-0.124314
802.000000	-0.125149
800.000000	-0.125858
798.000000	-0.126426
796.000000	-0.126876
794.000000	-0.127218
792.000000	-0.127449
790.000000	-0.127589
788.000000	-0.127650
786.000000	-0.127632
784.000000	-0.127546
782.000000	-0.127421
780.000000	-0.127284
778.000000	-0.127147
776.000000	-0.127025
774.000000	-0.126909
772.000000	-0.126758
770.000000	-0.126544
768.000000	-0.126297
766.000000	-0.126070
764.000000	-0.125871
762.000000	-0.125653
760.000000	-0.125340
758.000000	-0.124866
756.000000	-0.124271
754.000000	-0.123711
752.000000	-0.123313
750.000000	-0.123023
748.000000	-0.122674
746.000000	-0.122179
744.000000	-0.121570
742.000000	-0.120924
740.000000	-0.120265
738.000000	-0.119515
736.000000	-0.118553
734.000000	-0.117321
732.000000	-0.115958
730.000000	-0.114681
728.000000	-0.113559
726.000000	-0.112637
724.000000	-0.111971
722.000000	-0.111517
720.000000	-0.111089
718.000000	-0.110399
716.000000	-0.109165
714.000000	-0.107096
712.000000	-0.103889
710.000000	-0.099245
708.000000	-0.093050
706.000000	-0.085319
704.000000	-0.076191
702.000000	-0.065956
700.000000	-0.055295
