PE IR       SUBTECH     SPECTRUM    ASCII       PEDS        4.00        
   -1
p1_abs_fl.asc
14/03/28
15:09:19.00
14/05/18
17:12:41.00
luthra.7
Co-added spectrum 11 at 9423, 2299 (Image_liso4_test1 Marker 1)
700.000000
#HDR
-1
-1
#GR
cm-1
A
1.0
0.0
4000.000000
-2.000000
1651
8
0.120999
-0.011099
#DATA
4000.000000	0.001246
3998.000000	0.000809
3996.000000	0.000379
3994.000000	0.000010
3992.000000	-0.000251
3990.000000	-0.000389
3988.000000	-0.000439
3986.000000	-0.000457
3984.000000	-0.000472
3982.000000	-0.000455
3980.000000	-0.000376
3978.000000	-0.000256
3976.000000	-0.000146
3974.000000	-0.000071
3972.000000	-0.000029
3970.000000	0.000000
3968.000000	0.000074
3966.000000	0.000121
3964.000000	0.000095
3962.000000	0.000037
3960.000000	0.000009
3958.000000	0.000034
3956.000000	0.000122
3954.000000	0.000252
3952.000000	0.000405
3950.000000	0.000610
3948.000000	0.000904
3946.000000	0.001217
3944.000000	0.001446
3942.000000	0.001598
3940.000000	0.001698
3938.000000	0.001744
3936.000000	0.001738
3934.000000	0.001675
3932.000000	0.001535
3930.000000	0.001362
3928.000000	0.001269
3926.000000	0.001291
3924.000000	0.001377
3922.000000	0.001472
3920.000000	0.001558
3918.000000	0.001652
3916.000000	0.001808
3914.000000	0.002026
3912.000000	0.002230
3910.000000	0.002354
3908.000000	0.002393
3906.000000	0.002416
3904.000000	0.002527
3902.000000	0.002741
3900.000000	0.002942
3898.000000	0.003023
3896.000000	0.002979
3894.000000	0.002896
3892.000000	0.002835
3890.000000	0.002777
3888.000000	0.002672
3886.000000	0.002509
3884.000000	0.002376
3882.000000	0.002394
3880.000000	0.002589
3878.000000	0.002893
3876.000000	0.003225
3874.000000	0.003556
3872.000000	0.003838
3870.000000	0.004028
3868.000000	0.004103
3866.000000	0.004035
3864.000000	0.003870
3862.000000	0.003657
3860.000000	0.003391
3858.000000	0.003086
3856.000000	0.002801
3854.000000	0.002681
3852.000000	0.002832
3850.000000	0.003117
3848.000000	0.003416
3846.000000	0.003740
3844.000000	0.004126
3842.000000	0.004567
3840.000000	0.005045
3838.000000	0.005477
3836.000000	0.005697
3834.000000	0.005748
3832.000000	0.005804
3830.000000	0.005863
3828.000000	0.005837
3826.000000	0.005713
3824.000000	0.005499
3822.000000	0.005260
3820.000000	0.005178
3818.000000	0.005247
3816.000000	0.005375
3814.000000	0.005592
3812.000000	0.005899
3810.000000	0.006357
3808.000000	0.007010
3806.000000	0.007801
3804.000000	0.008554
3802.000000	0.009183
3800.000000	0.009694
3798.000000	0.009980
3796.000000	0.009991
3794.000000	0.009750
3792.000000	0.009300
3790.000000	0.008723
3788.000000	0.008105
3786.000000	0.007525
3784.000000	0.007055
3782.000000	0.006755
3780.000000	0.006682
3778.000000	0.006828
3776.000000	0.007077
3774.000000	0.007355
3772.000000	0.007686
3770.000000	0.008078
3768.000000	0.008432
3766.000000	0.008651
3764.000000	0.008782
3762.000000	0.008908
3760.000000	0.009069
3758.000000	0.009266
3756.000000	0.009415
3754.000000	0.009457
3752.000000	0.009437
3750.000000	0.009463
3748.000000	0.009500
3746.000000	0.009413
3744.000000	0.009225
3742.000000	0.008979
3740.000000	0.008683
3738.000000	0.008389
3736.000000	0.008150
3734.000000	0.008020
3732.000000	0.008014
3730.000000	0.008109
3728.000000	0.008279
3726.000000	0.008540
3724.000000	0.008943
3722.000000	0.009498
3720.000000	0.010158
3718.000000	0.010833
3716.000000	0.011459
3714.000000	0.012050
3712.000000	0.012670
3710.000000	0.013338
3708.000000	0.013960
3706.000000	0.014476
3704.000000	0.014939
3702.000000	0.015430
3700.000000	0.015956
3698.000000	0.016482
3696.000000	0.016986
3694.000000	0.017430
3692.000000	0.017844
3690.000000	0.018324
3688.000000	0.018837
3686.000000	0.019309
3684.000000	0.019806
3682.000000	0.020383
3680.000000	0.021050
3678.000000	0.021852
3676.000000	0.022837
3674.000000	0.023918
3672.000000	0.024938
3670.000000	0.025955
3668.000000	0.026969
3666.000000	0.027858
3664.000000	0.028652
3662.000000	0.029446
3660.000000	0.030233
3658.000000	0.031014
3656.000000	0.031922
3654.000000	0.033018
3652.000000	0.034274
3650.000000	0.035782
3648.000000	0.037606
3646.000000	0.039591
3644.000000	0.041636
3642.000000	0.043803
3640.000000	0.046106
3638.000000	0.048449
3636.000000	0.050744
3634.000000	0.052951
3632.000000	0.055082
3630.000000	0.057175
3628.000000	0.059220
3626.000000	0.061067
3624.000000	0.062663
3622.000000	0.064142
3620.000000	0.065625
3618.000000	0.067094
3616.000000	0.068447
3614.000000	0.069630
3612.000000	0.070686
3610.000000	0.071753
3608.000000	0.072918
3606.000000	0.074046
3604.000000	0.074964
3602.000000	0.075701
3600.000000	0.076409
3598.000000	0.077158
3596.000000	0.077934
3594.000000	0.078712
3592.000000	0.079447
3590.000000	0.080163
3588.000000	0.080983
3586.000000	0.081946
3584.000000	0.082927
3582.000000	0.083848
3580.000000	0.084706
3578.000000	0.085500
3576.000000	0.086254
3574.000000	0.086992
3572.000000	0.087699
3570.000000	0.088369
3568.000000	0.089069
3566.000000	0.089847
3564.000000	0.090680
3562.000000	0.091583
3560.000000	0.092553
3558.000000	0.093543
3556.000000	0.094530
3554.000000	0.095527
3552.000000	0.096520
3550.000000	0.097484
3548.000000	0.098425
3546.000000	0.099347
3544.000000	0.100235
3542.000000	0.101084
3540.000000	0.101920
3538.000000	0.102775
3536.000000	0.103657
3534.000000	0.104567
3532.000000	0.105506
3530.000000	0.106459
3528.000000	0.107406
3526.000000	0.108322
3524.000000	0.109209
3522.000000	0.110067
3520.000000	0.110871
3518.000000	0.111574
3516.000000	0.112144
3514.000000	0.112611
3512.000000	0.113036
3510.000000	0.113468
3508.000000	0.113902
3506.000000	0.114278
3504.000000	0.114588
3502.000000	0.114889
3500.000000	0.115207
3498.000000	0.115494
3496.000000	0.115732
3494.000000	0.115922
3492.000000	0.116043
3490.000000	0.116110
3488.000000	0.116159
3486.000000	0.116192
3484.000000	0.116210
3482.000000	0.116261
3480.000000	0.116365
3478.000000	0.116495
3476.000000	0.116657
3474.000000	0.116871
3472.000000	0.117104
3470.000000	0.117294
3468.000000	0.117398
3466.000000	0.117368
3464.000000	0.117164
3462.000000	0.116779
3460.000000	0.116205
3458.000000	0.115433
3456.000000	0.114471
3454.000000	0.113335
3452.000000	0.112073
3450.000000	0.110753
3448.000000	0.109409
3446.000000	0.108060
3444.000000	0.106715
3442.000000	0.105379
3440.000000	0.104053
3438.000000	0.102741
3436.000000	0.101420
3434.000000	0.100031
3432.000000	0.098546
3430.000000	0.096994
3428.000000	0.095410
3426.000000	0.093772
3424.000000	0.092083
3422.000000	0.090423
3420.000000	0.088868
3418.000000	0.087429
3416.000000	0.086095
3414.000000	0.084845
3412.000000	0.083638
3410.000000	0.082496
3408.000000	0.081475
3406.000000	0.080505
3404.000000	0.079468
3402.000000	0.078360
3400.000000	0.077240
3398.000000	0.076154
3396.000000	0.075144
3394.000000	0.074220
3392.000000	0.073318
3390.000000	0.072394
3388.000000	0.071507
3386.000000	0.070714
3384.000000	0.069995
3382.000000	0.069310
3380.000000	0.068621
3378.000000	0.067899
3376.000000	0.067148
3374.000000	0.066410
3372.000000	0.065727
3370.000000	0.065081
3368.000000	0.064409
3366.000000	0.063680
3364.000000	0.062928
3362.000000	0.062220
3360.000000	0.061599
3358.000000	0.061036
3356.000000	0.060474
3354.000000	0.059887
3352.000000	0.059290
3350.000000	0.058717
3348.000000	0.058180
3346.000000	0.057662
3344.000000	0.057096
3342.000000	0.056446
3340.000000	0.055759
3338.000000	0.055086
3336.000000	0.054420
3334.000000	0.053775
3332.000000	0.053160
3330.000000	0.052534
3328.000000	0.051902
3326.000000	0.051342
3324.000000	0.050866
3322.000000	0.050396
3320.000000	0.049894
3318.000000	0.049363
3316.000000	0.048803
3314.000000	0.048226
3312.000000	0.047632
3310.000000	0.046993
3308.000000	0.046282
3306.000000	0.045519
3304.000000	0.044767
3302.000000	0.044076
3300.000000	0.043468
3298.000000	0.042949
3296.000000	0.042502
3294.000000	0.042108
3292.000000	0.041772
3290.000000	0.041495
3288.000000	0.041257
3286.000000	0.041019
3284.000000	0.040716
3282.000000	0.040301
3280.000000	0.039802
3278.000000	0.039250
3276.000000	0.038633
3274.000000	0.037981
3272.000000	0.037353
3270.000000	0.036748
3268.000000	0.036180
3266.000000	0.035688
3264.000000	0.035235
3262.000000	0.034764
3260.000000	0.034298
3258.000000	0.033837
3256.000000	0.033308
3254.000000	0.032681
3252.000000	0.031985
3250.000000	0.031268
3248.000000	0.030579
3246.000000	0.029966
3244.000000	0.029424
3242.000000	0.028918
3240.000000	0.028472
3238.000000	0.028136
3236.000000	0.027892
3234.000000	0.027688
3232.000000	0.027493
3230.000000	0.027282
3228.000000	0.027077
3226.000000	0.026923
3224.000000	0.026797
3222.000000	0.026652
3220.000000	0.026483
3218.000000	0.026282
3216.000000	0.026020
3214.000000	0.025710
3212.000000	0.025343
3210.000000	0.024889
3208.000000	0.024357
3206.000000	0.023782
3204.000000	0.023195
3202.000000	0.022615
3200.000000	0.022059
3198.000000	0.021532
3196.000000	0.021025
3194.000000	0.020529
3192.000000	0.020057
3190.000000	0.019619
3188.000000	0.019183
3186.000000	0.018729
3184.000000	0.018275
3182.000000	0.017849
3180.000000	0.017472
3178.000000	0.017174
3176.000000	0.016955
3174.000000	0.016788
3172.000000	0.016655
3170.000000	0.016556
3168.000000	0.016477
3166.000000	0.016373
3164.000000	0.016207
3162.000000	0.015974
3160.000000	0.015683
3158.000000	0.015325
3156.000000	0.014893
3154.000000	0.014439
3152.000000	0.014031
3150.000000	0.013667
3148.000000	0.013306
3146.000000	0.012936
3144.000000	0.012557
3142.000000	0.012181
3140.000000	0.011840
3138.000000	0.011535
3136.000000	0.011229
3134.000000	0.010902
3132.000000	0.010583
3130.000000	0.010325
3128.000000	0.010157
3126.000000	0.010055
3124.000000	0.010010
3122.000000	0.010029
3120.000000	0.010072
3118.000000	0.010105
3116.000000	0.010148
3114.000000	0.010220
3112.000000	0.010283
3110.000000	0.010279
3108.000000	0.010202
3106.000000	0.010072
3104.000000	0.009926
3102.000000	0.009811
3100.000000	0.009723
3098.000000	0.009593
3096.000000	0.009414
3094.000000	0.009262
3092.000000	0.009183
3090.000000	0.009149
3088.000000	0.009093
3086.000000	0.008987
3084.000000	0.008871
3082.000000	0.008788
3080.000000	0.008741
3078.000000	0.008706
3076.000000	0.008647
3074.000000	0.008549
3072.000000	0.008441
3070.000000	0.008344
3068.000000	0.008231
3066.000000	0.008067
3064.000000	0.007883
3062.000000	0.007719
3060.000000	0.007575
3058.000000	0.007457
3056.000000	0.007396
3054.000000	0.007403
3052.000000	0.007463
3050.000000	0.007572
3048.000000	0.007712
3046.000000	0.007823
3044.000000	0.007869
3042.000000	0.007851
3040.000000	0.007748
3038.000000	0.007544
3036.000000	0.007271
3034.000000	0.006968
3032.000000	0.006646
3030.000000	0.006321
3028.000000	0.006027
3026.000000	0.005795
3024.000000	0.005640
3022.000000	0.005553
3020.000000	0.005500
3018.000000	0.005457
3016.000000	0.005422
3014.000000	0.005416
3012.000000	0.005417
3010.000000	0.005396
3008.000000	0.005365
3006.000000	0.005333
3004.000000	0.005278
3002.000000	0.005197
3000.000000	0.005112
2998.000000	0.005020
2996.000000	0.004916
2994.000000	0.004814
2992.000000	0.004690
2990.000000	0.004539
2988.000000	0.004391
2986.000000	0.004239
2984.000000	0.004053
2982.000000	0.003828
2980.000000	0.003554
2978.000000	0.003209
2976.000000	0.002801
2974.000000	0.002370
2972.000000	0.001936
2970.000000	0.001524
2968.000000	0.001175
2966.000000	0.000919
2964.000000	0.000762
2962.000000	0.000720
2960.000000	0.000806
2958.000000	0.000977
2956.000000	0.001181
2954.000000	0.001392
2952.000000	0.001593
2950.000000	0.001762
2948.000000	0.001885
2946.000000	0.001964
2944.000000	0.001992
2942.000000	0.001994
2940.000000	0.002000
2938.000000	0.002001
2936.000000	0.001986
2934.000000	0.001936
2932.000000	0.001850
2930.000000	0.001752
2928.000000	0.001667
2926.000000	0.001596
2924.000000	0.001525
2922.000000	0.001444
2920.000000	0.001331
2918.000000	0.001202
2916.000000	0.001102
2914.000000	0.001020
2912.000000	0.000919
2910.000000	0.000772
2908.000000	0.000581
2906.000000	0.000378
2904.000000	0.000206
2902.000000	0.000082
2900.000000	-0.000021
2898.000000	-0.000123
2896.000000	-0.000202
2894.000000	-0.000217
2892.000000	-0.000169
2890.000000	-0.000110
2888.000000	-0.000060
2886.000000	0.000009
2884.000000	0.000105
2882.000000	0.000216
2880.000000	0.000320
2878.000000	0.000372
2876.000000	0.000342
2874.000000	0.000270
2872.000000	0.000206
2870.000000	0.000132
2868.000000	0.000030
2866.000000	-0.000060
2864.000000	-0.000096
2862.000000	-0.000083
2860.000000	-0.000043
2858.000000	0.000027
2856.000000	0.000128
2854.000000	0.000238
2852.000000	0.000322
2850.000000	0.000349
2848.000000	0.000309
2846.000000	0.000225
2844.000000	0.000119
2842.000000	0.000021
2840.000000	-0.000066
2838.000000	-0.000158
2836.000000	-0.000228
2834.000000	-0.000253
2832.000000	-0.000251
2830.000000	-0.000214
2828.000000	-0.000138
2826.000000	-0.000068
2824.000000	-0.000031
2822.000000	-0.000005
2820.000000	0.000017
2818.000000	0.000025
2816.000000	0.000016
2814.000000	-0.000017
2812.000000	-0.000074
2810.000000	-0.000097
2808.000000	-0.000050
2806.000000	0.000055
2804.000000	0.000170
2802.000000	0.000257
2800.000000	0.000330
2798.000000	0.000428
2796.000000	0.000572
2794.000000	0.000726
2792.000000	0.000834
2790.000000	0.000871
2788.000000	0.000880
2786.000000	0.000932
2784.000000	0.001034
2782.000000	0.001136
2780.000000	0.001201
2778.000000	0.001243
2776.000000	0.001284
2774.000000	0.001339
2772.000000	0.001411
2770.000000	0.001468
2768.000000	0.001501
2766.000000	0.001540
2764.000000	0.001594
2762.000000	0.001647
2760.000000	0.001699
2758.000000	0.001770
2756.000000	0.001851
2754.000000	0.001928
2752.000000	0.002006
2750.000000	0.002087
2748.000000	0.002173
2746.000000	0.002278
2744.000000	0.002409
2742.000000	0.002547
2740.000000	0.002684
2738.000000	0.002837
2736.000000	0.003014
2734.000000	0.003213
2732.000000	0.003423
2730.000000	0.003620
2728.000000	0.003806
2726.000000	0.003991
2724.000000	0.004180
2722.000000	0.004369
2720.000000	0.004549
2718.000000	0.004704
2716.000000	0.004820
2714.000000	0.004899
2712.000000	0.004960
2710.000000	0.005001
2708.000000	0.005018
2706.000000	0.004999
2704.000000	0.004927
2702.000000	0.004801
2700.000000	0.004665
2698.000000	0.004565
2696.000000	0.004509
2694.000000	0.004495
2692.000000	0.004540
2690.000000	0.004639
2688.000000	0.004804
2686.000000	0.005054
2684.000000	0.005372
2682.000000	0.005719
2680.000000	0.006052
2678.000000	0.006333
2676.000000	0.006531
2674.000000	0.006661
2672.000000	0.006764
2670.000000	0.006862
2668.000000	0.006956
2666.000000	0.007038
2664.000000	0.007114
2662.000000	0.007202
2660.000000	0.007318
2658.000000	0.007455
2656.000000	0.007581
2654.000000	0.007673
2652.000000	0.007736
2650.000000	0.007778
2648.000000	0.007814
2646.000000	0.007878
2644.000000	0.008000
2642.000000	0.008191
2640.000000	0.008424
2638.000000	0.008662
2636.000000	0.008890
2634.000000	0.009116
2632.000000	0.009343
2630.000000	0.009539
2628.000000	0.009674
2626.000000	0.009748
2624.000000	0.009790
2622.000000	0.009851
2620.000000	0.009944
2618.000000	0.010049
2616.000000	0.010144
2614.000000	0.010236
2612.000000	0.010347
2610.000000	0.010478
2608.000000	0.010609
2606.000000	0.010711
2604.000000	0.010780
2602.000000	0.010839
2600.000000	0.010929
2598.000000	0.011056
2596.000000	0.011208
2594.000000	0.011388
2592.000000	0.011598
2590.000000	0.011825
2588.000000	0.012068
2586.000000	0.012321
2584.000000	0.012576
2582.000000	0.012821
2580.000000	0.013042
2578.000000	0.013220
2576.000000	0.013350
2574.000000	0.013451
2572.000000	0.013546
2570.000000	0.013642
2568.000000	0.013728
2566.000000	0.013801
2564.000000	0.013866
2562.000000	0.013915
2560.000000	0.013958
2558.000000	0.014015
2556.000000	0.014080
2554.000000	0.014140
2552.000000	0.014201
2550.000000	0.014260
2548.000000	0.014337
2546.000000	0.014465
2544.000000	0.014643
2542.000000	0.014836
2540.000000	0.015044
2538.000000	0.015273
2536.000000	0.015487
2534.000000	0.015647
2532.000000	0.015760
2530.000000	0.015839
2528.000000	0.015885
2526.000000	0.015923
2524.000000	0.015954
2522.000000	0.015950
2520.000000	0.015926
2518.000000	0.015923
2516.000000	0.015943
2514.000000	0.015969
2512.000000	0.015977
2510.000000	0.015931
2508.000000	0.015828
2506.000000	0.015727
2504.000000	0.015690
2502.000000	0.015720
2500.000000	0.015800
2498.000000	0.015934
2496.000000	0.016136
2494.000000	0.016410
2492.000000	0.016743
2490.000000	0.017080
2488.000000	0.017348
2486.000000	0.017536
2484.000000	0.017680
2482.000000	0.017766
2480.000000	0.017765
2478.000000	0.017693
2476.000000	0.017578
2474.000000	0.017440
2472.000000	0.017320
2470.000000	0.017237
2468.000000	0.017180
2466.000000	0.017135
2464.000000	0.017122
2462.000000	0.017150
2460.000000	0.017206
2458.000000	0.017288
2456.000000	0.017385
2454.000000	0.017479
2452.000000	0.017553
2450.000000	0.017592
2448.000000	0.017589
2446.000000	0.017561
2444.000000	0.017525
2442.000000	0.017482
2440.000000	0.017430
2438.000000	0.017361
2436.000000	0.017288
2434.000000	0.017252
2432.000000	0.017295
2430.000000	0.017420
2428.000000	0.017592
2426.000000	0.017768
2424.000000	0.017927
2422.000000	0.018084
2420.000000	0.018260
2418.000000	0.018459
2416.000000	0.018670
2414.000000	0.018856
2412.000000	0.018983
2410.000000	0.019077
2408.000000	0.019201
2406.000000	0.019372
2404.000000	0.019553
2402.000000	0.019693
2400.000000	0.019757
2398.000000	0.019754
2396.000000	0.019741
2394.000000	0.019737
2392.000000	0.019704
2390.000000	0.019613
2388.000000	0.019474
2386.000000	0.019306
2384.000000	0.019121
2382.000000	0.018926
2380.000000	0.018712
2378.000000	0.018488
2376.000000	0.018317
2374.000000	0.018266
2372.000000	0.018291
2370.000000	0.018322
2368.000000	0.018412
2366.000000	0.018645
2364.000000	0.018987
2362.000000	0.019339
2360.000000	0.019599
2358.000000	0.019731
2356.000000	0.019828
2354.000000	0.019993
2352.000000	0.020215
2350.000000	0.020373
2348.000000	0.020415
2346.000000	0.020389
2344.000000	0.020366
2342.000000	0.020364
2340.000000	0.020353
2338.000000	0.020248
2336.000000	0.019992
2334.000000	0.019666
2332.000000	0.019388
2330.000000	0.019190
2328.000000	0.019058
2326.000000	0.018996
2324.000000	0.018962
2322.000000	0.018924
2320.000000	0.018933
2318.000000	0.019001
2316.000000	0.019057
2314.000000	0.019056
2312.000000	0.019018
2310.000000	0.018969
2308.000000	0.018946
2306.000000	0.018990
2304.000000	0.019074
2302.000000	0.019158
2300.000000	0.019252
2298.000000	0.019384
2296.000000	0.019545
2294.000000	0.019690
2292.000000	0.019779
2290.000000	0.019793
2288.000000	0.019759
2286.000000	0.019725
2284.000000	0.019709
2282.000000	0.019691
2280.000000	0.019645
2278.000000	0.019587
2276.000000	0.019553
2274.000000	0.019559
2272.000000	0.019581
2270.000000	0.019587
2268.000000	0.019558
2266.000000	0.019518
2264.000000	0.019501
2262.000000	0.019514
2260.000000	0.019526
2258.000000	0.019514
2256.000000	0.019486
2254.000000	0.019454
2252.000000	0.019387
2250.000000	0.019252
2248.000000	0.019054
2246.000000	0.018821
2244.000000	0.018570
2242.000000	0.018314
2240.000000	0.018065
2238.000000	0.017828
2236.000000	0.017640
2234.000000	0.017542
2232.000000	0.017523
2230.000000	0.017528
2228.000000	0.017534
2226.000000	0.017536
2224.000000	0.017532
2222.000000	0.017528
2220.000000	0.017502
2218.000000	0.017426
2216.000000	0.017300
2214.000000	0.017159
2212.000000	0.017016
2210.000000	0.016872
2208.000000	0.016734
2206.000000	0.016598
2204.000000	0.016471
2202.000000	0.016366
2200.000000	0.016275
2198.000000	0.016180
2196.000000	0.016073
2194.000000	0.015948
2192.000000	0.015795
2190.000000	0.015601
2188.000000	0.015364
2186.000000	0.015093
2184.000000	0.014795
2182.000000	0.014473
2180.000000	0.014167
2178.000000	0.013910
2176.000000	0.013704
2174.000000	0.013543
2172.000000	0.013428
2170.000000	0.013351
2168.000000	0.013300
2166.000000	0.013279
2164.000000	0.013269
2162.000000	0.013233
2160.000000	0.013163
2158.000000	0.013077
2156.000000	0.012986
2154.000000	0.012900
2152.000000	0.012822
2150.000000	0.012744
2148.000000	0.012674
2146.000000	0.012612
2144.000000	0.012539
2142.000000	0.012459
2140.000000	0.012383
2138.000000	0.012299
2136.000000	0.012210
2134.000000	0.012122
2132.000000	0.012028
2130.000000	0.011914
2128.000000	0.011796
2126.000000	0.011673
2124.000000	0.011518
2122.000000	0.011301
2120.000000	0.011023
2118.000000	0.010689
2116.000000	0.010313
2114.000000	0.009899
2112.000000	0.009437
2110.000000	0.008931
2108.000000	0.008414
2106.000000	0.007934
2104.000000	0.007508
2102.000000	0.007124
2100.000000	0.006767
2098.000000	0.006429
2096.000000	0.006131
2094.000000	0.005887
2092.000000	0.005689
2090.000000	0.005493
2088.000000	0.005258
2086.000000	0.004992
2084.000000	0.004714
2082.000000	0.004441
2080.000000	0.004179
2078.000000	0.003935
2076.000000	0.003710
2074.000000	0.003507
2072.000000	0.003332
2070.000000	0.003188
2068.000000	0.003079
2066.000000	0.002990
2064.000000	0.002890
2062.000000	0.002777
2060.000000	0.002665
2058.000000	0.002551
2056.000000	0.002450
2054.000000	0.002374
2052.000000	0.002299
2050.000000	0.002223
2048.000000	0.002171
2046.000000	0.002136
2044.000000	0.002093
2042.000000	0.002031
2040.000000	0.001955
2038.000000	0.001869
2036.000000	0.001781
2034.000000	0.001700
2032.000000	0.001627
2030.000000	0.001576
2028.000000	0.001553
2026.000000	0.001551
2024.000000	0.001561
2022.000000	0.001576
2020.000000	0.001581
2018.000000	0.001566
2016.000000	0.001534
2014.000000	0.001494
2012.000000	0.001459
2010.000000	0.001437
2008.000000	0.001420
2006.000000	0.001403
2004.000000	0.001411
2002.000000	0.001462
2000.000000	0.001540
1998.000000	0.001622
1996.000000	0.001680
1994.000000	0.001710
1992.000000	0.001743
1990.000000	0.001806
1988.000000	0.001875
1986.000000	0.001919
1984.000000	0.001946
1982.000000	0.001976
1980.000000	0.002017
1978.000000	0.002074
1976.000000	0.002142
1974.000000	0.002195
1972.000000	0.002230
1970.000000	0.002263
1968.000000	0.002297
1966.000000	0.002311
1964.000000	0.002297
1962.000000	0.002274
1960.000000	0.002268
1958.000000	0.002273
1956.000000	0.002286
1954.000000	0.002299
1952.000000	0.002293
1950.000000	0.002273
1948.000000	0.002272
1946.000000	0.002300
1944.000000	0.002336
1942.000000	0.002367
1940.000000	0.002399
1938.000000	0.002430
1936.000000	0.002472
1934.000000	0.002545
1932.000000	0.002632
1930.000000	0.002691
1928.000000	0.002707
1926.000000	0.002690
1924.000000	0.002651
1922.000000	0.002595
1920.000000	0.002524
1918.000000	0.002443
1916.000000	0.002371
1914.000000	0.002321
1912.000000	0.002297
1910.000000	0.002291
1908.000000	0.002285
1906.000000	0.002278
1904.000000	0.002281
1902.000000	0.002294
1900.000000	0.002301
1898.000000	0.002281
1896.000000	0.002235
1894.000000	0.002181
1892.000000	0.002144
1890.000000	0.002140
1888.000000	0.002161
1886.000000	0.002180
1884.000000	0.002184
1882.000000	0.002195
1880.000000	0.002234
1878.000000	0.002301
1876.000000	0.002388
1874.000000	0.002474
1872.000000	0.002555
1870.000000	0.002666
1868.000000	0.002822
1866.000000	0.002987
1864.000000	0.003139
1862.000000	0.003272
1860.000000	0.003374
1858.000000	0.003439
1856.000000	0.003463
1854.000000	0.003423
1852.000000	0.003321
1850.000000	0.003191
1848.000000	0.003065
1846.000000	0.002951
1844.000000	0.002842
1842.000000	0.002735
1840.000000	0.002657
1838.000000	0.002629
1836.000000	0.002645
1834.000000	0.002675
1832.000000	0.002677
1830.000000	0.002625
1828.000000	0.002537
1826.000000	0.002465
1824.000000	0.002396
1822.000000	0.002283
1820.000000	0.002136
1818.000000	0.002001
1816.000000	0.001898
1814.000000	0.001843
1812.000000	0.001842
1810.000000	0.001846
1808.000000	0.001825
1806.000000	0.001824
1804.000000	0.001865
1802.000000	0.001905
1800.000000	0.001914
1798.000000	0.001895
1796.000000	0.001830
1794.000000	0.001718
1792.000000	0.001593
1790.000000	0.001468
1788.000000	0.001317
1786.000000	0.001148
1784.000000	0.000981
1782.000000	0.000821
1780.000000	0.000674
1778.000000	0.000553
1776.000000	0.000456
1774.000000	0.000372
1772.000000	0.000297
1770.000000	0.000229
1768.000000	0.000163
1766.000000	0.000103
1764.000000	0.000050
1762.000000	0.000012
1760.000000	-0.000002
1758.000000	-0.000003
1756.000000	0.000014
1754.000000	0.000065
1752.000000	0.000144
1750.000000	0.000235
1748.000000	0.000346
1746.000000	0.000485
1744.000000	0.000646
1742.000000	0.000818
1740.000000	0.000978
1738.000000	0.001091
1736.000000	0.001150
1734.000000	0.001170
1732.000000	0.001167
1730.000000	0.001141
1728.000000	0.001071
1726.000000	0.000953
1724.000000	0.000815
1722.000000	0.000685
1720.000000	0.000577
1718.000000	0.000499
1716.000000	0.000457
1714.000000	0.000424
1712.000000	0.000400
1710.000000	0.000400
1708.000000	0.000429
1706.000000	0.000494
1704.000000	0.000597
1702.000000	0.000740
1700.000000	0.000919
1698.000000	0.001109
1696.000000	0.001302
1694.000000	0.001509
1692.000000	0.001736
1690.000000	0.001961
1688.000000	0.002145
1686.000000	0.002274
1684.000000	0.002346
1682.000000	0.002386
1680.000000	0.002454
1678.000000	0.002560
1676.000000	0.002669
1674.000000	0.002761
1672.000000	0.002877
1670.000000	0.003041
1668.000000	0.003239
1666.000000	0.003462
1664.000000	0.003705
1662.000000	0.003954
1660.000000	0.004202
1658.000000	0.004466
1656.000000	0.004769
1654.000000	0.005131
1652.000000	0.005587
1650.000000	0.006132
1648.000000	0.006733
1646.000000	0.007376
1644.000000	0.008119
1642.000000	0.009018
1640.000000	0.010073
1638.000000	0.011287
1636.000000	0.012664
1634.000000	0.014216
1632.000000	0.015984
1630.000000	0.018005
1628.000000	0.020257
1626.000000	0.022684
1624.000000	0.025225
1622.000000	0.027793
1620.000000	0.030239
1618.000000	0.032428
1616.000000	0.034246
1614.000000	0.035553
1612.000000	0.036244
1610.000000	0.036264
1608.000000	0.035601
1606.000000	0.034306
1604.000000	0.032486
1602.000000	0.030288
1600.000000	0.027847
1598.000000	0.025287
1596.000000	0.022735
1594.000000	0.020292
1592.000000	0.018039
1590.000000	0.016028
1588.000000	0.014278
1586.000000	0.012769
1584.000000	0.011478
1582.000000	0.010386
1580.000000	0.009474
1578.000000	0.008729
1576.000000	0.008129
1574.000000	0.007625
1572.000000	0.007167
1570.000000	0.006746
1568.000000	0.006381
1566.000000	0.006078
1564.000000	0.005831
1562.000000	0.005625
1560.000000	0.005422
1558.000000	0.005188
1556.000000	0.004994
1554.000000	0.004851
1552.000000	0.004732
1550.000000	0.004610
1548.000000	0.004465
1546.000000	0.004283
1544.000000	0.004072
1542.000000	0.003871
1540.000000	0.003707
1538.000000	0.003572
1536.000000	0.003438
1534.000000	0.003283
1532.000000	0.003122
1530.000000	0.002994
1528.000000	0.002894
1526.000000	0.002801
1524.000000	0.002703
1522.000000	0.002577
1520.000000	0.002401
1518.000000	0.002225
1516.000000	0.002076
1514.000000	0.001941
1512.000000	0.001813
1510.000000	0.001705
1508.000000	0.001618
1506.000000	0.001535
1504.000000	0.001473
1502.000000	0.001435
1500.000000	0.001399
1498.000000	0.001360
1496.000000	0.001317
1494.000000	0.001253
1492.000000	0.001147
1490.000000	0.001000
1488.000000	0.000841
1486.000000	0.000697
1484.000000	0.000572
1482.000000	0.000455
1480.000000	0.000331
1478.000000	0.000218
1476.000000	0.000152
1474.000000	0.000149
1472.000000	0.000203
1470.000000	0.000281
1468.000000	0.000354
1466.000000	0.000417
1464.000000	0.000481
1462.000000	0.000544
1460.000000	0.000585
1458.000000	0.000584
1456.000000	0.000533
1454.000000	0.000454
1452.000000	0.000363
1450.000000	0.000264
1448.000000	0.000163
1446.000000	0.000064
1444.000000	-0.000026
1442.000000	-0.000104
1440.000000	-0.000164
1438.000000	-0.000207
1436.000000	-0.000232
1434.000000	-0.000241
1432.000000	-0.000243
1430.000000	-0.000256
1428.000000	-0.000275
1426.000000	-0.000268
1424.000000	-0.000234
1422.000000	-0.000189
1420.000000	-0.000150
1418.000000	-0.000145
1416.000000	-0.000167
1414.000000	-0.000185
1412.000000	-0.000201
1410.000000	-0.000228
1408.000000	-0.000272
1406.000000	-0.000341
1404.000000	-0.000431
1402.000000	-0.000520
1400.000000	-0.000593
1398.000000	-0.000652
1396.000000	-0.000702
1394.000000	-0.000748
1392.000000	-0.000789
1390.000000	-0.000815
1388.000000	-0.000820
1386.000000	-0.000815
1384.000000	-0.000792
1382.000000	-0.000750
1380.000000	-0.000703
1378.000000	-0.000656
1376.000000	-0.000605
1374.000000	-0.000551
1372.000000	-0.000500
1370.000000	-0.000453
1368.000000	-0.000404
1366.000000	-0.000353
1364.000000	-0.000305
1362.000000	-0.000260
1360.000000	-0.000215
1358.000000	-0.000167
1356.000000	-0.000108
1354.000000	-0.000032
1352.000000	0.000051
1350.000000	0.000148
1348.000000	0.000281
1346.000000	0.000457
1344.000000	0.000658
1342.000000	0.000874
1340.000000	0.001094
1338.000000	0.001307
1336.000000	0.001524
1334.000000	0.001751
1332.000000	0.001975
1330.000000	0.002187
1328.000000	0.002394
1326.000000	0.002618
1324.000000	0.002888
1322.000000	0.003211
1320.000000	0.003564
1318.000000	0.003918
1316.000000	0.004265
1314.000000	0.004619
1312.000000	0.004973
1310.000000	0.005307
1308.000000	0.005615
1306.000000	0.005897
1304.000000	0.006163
1302.000000	0.006432
1300.000000	0.006713
1298.000000	0.007007
1296.000000	0.007324
1294.000000	0.007665
1292.000000	0.008030
1290.000000	0.008411
1288.000000	0.008789
1286.000000	0.009162
1284.000000	0.009553
1282.000000	0.009963
1280.000000	0.010363
1278.000000	0.010726
1276.000000	0.011079
1274.000000	0.011452
1272.000000	0.011856
1270.000000	0.012286
1268.000000	0.012727
1266.000000	0.013178
1264.000000	0.013670
1262.000000	0.014240
1260.000000	0.014877
1258.000000	0.015547
1256.000000	0.016250
1254.000000	0.017003
1252.000000	0.017825
1250.000000	0.018722
1248.000000	0.019692
1246.000000	0.020733
1244.000000	0.021845
1242.000000	0.023038
1240.000000	0.024333
1238.000000	0.025766
1236.000000	0.027348
1234.000000	0.029095
1232.000000	0.031023
1230.000000	0.033138
1228.000000	0.035459
1226.000000	0.038014
1224.000000	0.040803
1222.000000	0.043765
1220.000000	0.046831
1218.000000	0.049935
1216.000000	0.053016
1214.000000	0.056045
1212.000000	0.059006
1210.000000	0.061859
1208.000000	0.064564
1206.000000	0.067143
1204.000000	0.069656
1202.000000	0.072157
1200.000000	0.074681
1198.000000	0.077220
1196.000000	0.079757
1194.000000	0.082285
1192.000000	0.084798
1190.000000	0.087256
1188.000000	0.089615
1186.000000	0.091833
1184.000000	0.093883
1182.000000	0.095783
1180.000000	0.097556
1178.000000	0.099199
1176.000000	0.100732
1174.000000	0.102193
1172.000000	0.103579
1170.000000	0.104871
1168.000000	0.106070
1166.000000	0.107151
1164.000000	0.108078
1162.000000	0.108843
1160.000000	0.109442
1158.000000	0.109879
1156.000000	0.110184
1154.000000	0.110400
1152.000000	0.110561
1150.000000	0.110701
1148.000000	0.110869
1146.000000	0.111096
1144.000000	0.111381
1142.000000	0.111682
1140.000000	0.111946
1138.000000	0.112144
1136.000000	0.112280
1134.000000	0.112353
1132.000000	0.112329
1130.000000	0.112181
1128.000000	0.111918
1126.000000	0.111587
1124.000000	0.111264
1122.000000	0.111017
1120.000000	0.110855
1118.000000	0.110735
1116.000000	0.110653
1114.000000	0.110661
1112.000000	0.110808
1110.000000	0.111111
1108.000000	0.111557
1106.000000	0.112113
1104.000000	0.112786
1102.000000	0.113611
1100.000000	0.114619
1098.000000	0.115779
1096.000000	0.116995
1094.000000	0.118162
1092.000000	0.119210
1090.000000	0.120095
1088.000000	0.120729
1086.000000	0.120999
1084.000000	0.120806
1082.000000	0.120091
1080.000000	0.118845
1078.000000	0.117079
1076.000000	0.114804
1074.000000	0.112051
1072.000000	0.108869
1070.000000	0.105300
1068.000000	0.101399
1066.000000	0.097246
1064.000000	0.092930
1062.000000	0.088538
1060.000000	0.084159
1058.000000	0.079855
1056.000000	0.075651
1054.000000	0.071569
1052.000000	0.067670
1050.000000	0.064008
1048.000000	0.060603
1046.000000	0.057449
1044.000000	0.054539
1042.000000	0.051863
1040.000000	0.049447
1038.000000	0.047338
1036.000000	0.045538
1034.000000	0.044017
1032.000000	0.042767
1030.000000	0.041797
1028.000000	0.041089
1026.000000	0.040599
1024.000000	0.040272
1022.000000	0.040054
1020.000000	0.039884
1018.000000	0.039702
1016.000000	0.039461
1014.000000	0.039120
1012.000000	0.038635
1010.000000	0.038001
1008.000000	0.037243
1006.000000	0.036398
1004.000000	0.035486
1002.000000	0.034540
1000.000000	0.033601
998.000000	0.032686
996.000000	0.031797
994.000000	0.030953
992.000000	0.030168
990.000000	0.029432
988.000000	0.028731
986.000000	0.028065
984.000000	0.027433
982.000000	0.026829
980.000000	0.026254
978.000000	0.025707
976.000000	0.025178
974.000000	0.024645
972.000000	0.024109
970.000000	0.023597
968.000000	0.023120
966.000000	0.022668
964.000000	0.022242
962.000000	0.021842
960.000000	0.021458
958.000000	0.021088
956.000000	0.020726
954.000000	0.020345
952.000000	0.019914
950.000000	0.019426
948.000000	0.018890
946.000000	0.018321
944.000000	0.017728
942.000000	0.017113
940.000000	0.016486
938.000000	0.015869
936.000000	0.015280
934.000000	0.014733
932.000000	0.014232
930.000000	0.013766
928.000000	0.013324
926.000000	0.012903
924.000000	0.012499
922.000000	0.012131
920.000000	0.011798
918.000000	0.011478
916.000000	0.011143
914.000000	0.010773
912.000000	0.010357
910.000000	0.009921
908.000000	0.009486
906.000000	0.009053
904.000000	0.008633
902.000000	0.008255
900.000000	0.007918
898.000000	0.007644
896.000000	0.007463
894.000000	0.007362
892.000000	0.007301
890.000000	0.007248
888.000000	0.007172
886.000000	0.007068
884.000000	0.006971
882.000000	0.006915
880.000000	0.006893
878.000000	0.006904
876.000000	0.006985
874.000000	0.007172
872.000000	0.007463
870.000000	0.007832
868.000000	0.008274
866.000000	0.008736
864.000000	0.009157
862.000000	0.009530
860.000000	0.009858
858.000000	0.010136
856.000000	0.010352
854.000000	0.010509
852.000000	0.010611
850.000000	0.010683
848.000000	0.010755
846.000000	0.010825
844.000000	0.010864
842.000000	0.010868
840.000000	0.010848
838.000000	0.010784
836.000000	0.010665
834.000000	0.010505
832.000000	0.010322
830.000000	0.010157
828.000000	0.010059
826.000000	0.010026
824.000000	0.010004
822.000000	0.009980
820.000000	0.009999
818.000000	0.010048
816.000000	0.010084
814.000000	0.010071
812.000000	0.009957
810.000000	0.009688
808.000000	0.009302
806.000000	0.008878
804.000000	0.008430
802.000000	0.007944
800.000000	0.007422
798.000000	0.006877
796.000000	0.006356
794.000000	0.005922
792.000000	0.005590
790.000000	0.005321
788.000000	0.005075
786.000000	0.004825
784.000000	0.004555
782.000000	0.004299
780.000000	0.004056
778.000000	0.003786
776.000000	0.003490
774.000000	0.003226
772.000000	0.003041
770.000000	0.002924
768.000000	0.002834
766.000000	0.002756
764.000000	0.002665
762.000000	0.002504
760.000000	0.002258
758.000000	0.001934
756.000000	0.001498
754.000000	0.000975
752.000000	0.000455
750.000000	-0.000025
748.000000	-0.000423
746.000000	-0.000641
744.000000	-0.000627
742.000000	-0.000402
740.000000	0.000003
738.000000	0.000527
736.000000	0.001161
734.000000	0.001994
732.000000	0.003014
730.000000	0.004049
728.000000	0.004969
726.000000	0.005732
724.000000	0.006305
722.000000	0.006805
720.000000	0.007395
718.000000	0.007929
716.000000	0.008079
714.000000	0.007684
712.000000	0.006618
710.000000	0.004880
708.000000	0.002774
706.000000	0.000443
704.000000	-0.002553
702.000000	-0.006543
700.000000	-0.011099
