PE IR       SUBTECH     SPECTRUM    ASCII       PEDS        4.00        
   -1
p2_abs_unf.asc
14/03/28
15:09:19.00
14/05/15
13:29:49.00
luthra.7
Co-added spectrum 11 at 9405, 2258 (Image_liso4_test1 Marker 1)
700.000000
#HDR
-1
-1
#GR
cm-1
A
1.0
0.0
4000.000000
-2.000000
1651
8
0.179327
-0.037314
#DATA
4000.000000	0.087350
3998.000000	0.087511
3996.000000	0.087631
3994.000000	0.087667
3992.000000	0.087540
3990.000000	0.087191
3988.000000	0.086709
3986.000000	0.086241
3984.000000	0.085859
3982.000000	0.085533
3980.000000	0.085182
3978.000000	0.084831
3976.000000	0.084593
3974.000000	0.084473
3972.000000	0.084385
3970.000000	0.084324
3968.000000	0.084346
3966.000000	0.084472
3964.000000	0.084653
3962.000000	0.084796
3960.000000	0.084845
3958.000000	0.084804
3956.000000	0.084677
3954.000000	0.084485
3952.000000	0.084288
3950.000000	0.084138
3948.000000	0.084050
3946.000000	0.083987
3944.000000	0.083887
3942.000000	0.083736
3940.000000	0.083563
3938.000000	0.083380
3936.000000	0.083198
3934.000000	0.083071
3932.000000	0.083060
3930.000000	0.083198
3928.000000	0.083436
3926.000000	0.083692
3924.000000	0.083917
3922.000000	0.084032
3920.000000	0.083973
3918.000000	0.083746
3916.000000	0.083391
3914.000000	0.082996
3912.000000	0.082650
3910.000000	0.082422
3908.000000	0.082339
3906.000000	0.082397
3904.000000	0.082619
3902.000000	0.083005
3900.000000	0.083419
3898.000000	0.083692
3896.000000	0.083725
3894.000000	0.083546
3892.000000	0.083240
3890.000000	0.082806
3888.000000	0.082130
3886.000000	0.081297
3884.000000	0.080563
3882.000000	0.080096
3880.000000	0.079947
3878.000000	0.079999
3876.000000	0.080108
3874.000000	0.080362
3872.000000	0.080779
3870.000000	0.081230
3868.000000	0.081567
3866.000000	0.081671
3864.000000	0.081710
3862.000000	0.081846
3860.000000	0.081947
3858.000000	0.081922
3856.000000	0.081823
3854.000000	0.081723
3852.000000	0.081658
3850.000000	0.081442
3848.000000	0.080967
3846.000000	0.080440
3844.000000	0.080034
3842.000000	0.079715
3840.000000	0.079375
3838.000000	0.079071
3836.000000	0.079009
3834.000000	0.079242
3832.000000	0.079584
3830.000000	0.079837
3828.000000	0.079989
3826.000000	0.080146
3824.000000	0.080270
3822.000000	0.080234
3820.000000	0.080036
3818.000000	0.079764
3816.000000	0.079471
3814.000000	0.079117
3812.000000	0.078727
3810.000000	0.078408
3808.000000	0.078209
3806.000000	0.078122
3804.000000	0.078086
3802.000000	0.078127
3800.000000	0.078304
3798.000000	0.078447
3796.000000	0.078479
3794.000000	0.078494
3792.000000	0.078521
3790.000000	0.078569
3788.000000	0.078621
3786.000000	0.078693
3784.000000	0.078857
3782.000000	0.079070
3780.000000	0.079248
3778.000000	0.079352
3776.000000	0.079382
3774.000000	0.079336
3772.000000	0.079183
3770.000000	0.078970
3768.000000	0.078758
3766.000000	0.078537
3764.000000	0.078276
3762.000000	0.077988
3760.000000	0.077758
3758.000000	0.077598
3756.000000	0.077430
3754.000000	0.077248
3752.000000	0.077129
3750.000000	0.077127
3748.000000	0.077090
3746.000000	0.076947
3744.000000	0.076858
3742.000000	0.076839
3740.000000	0.076802
3738.000000	0.076809
3736.000000	0.076988
3734.000000	0.077421
3732.000000	0.077990
3730.000000	0.078501
3728.000000	0.078965
3726.000000	0.079403
3724.000000	0.079625
3722.000000	0.079529
3720.000000	0.079285
3718.000000	0.079068
3716.000000	0.078949
3714.000000	0.078917
3712.000000	0.079020
3710.000000	0.079411
3708.000000	0.080061
3706.000000	0.080745
3704.000000	0.081358
3702.000000	0.081893
3700.000000	0.082366
3698.000000	0.082735
3696.000000	0.082973
3694.000000	0.083159
3692.000000	0.083371
3690.000000	0.083624
3688.000000	0.083876
3686.000000	0.084098
3684.000000	0.084392
3682.000000	0.084828
3680.000000	0.085438
3678.000000	0.086282
3676.000000	0.087428
3674.000000	0.088928
3672.000000	0.090692
3670.000000	0.092537
3668.000000	0.094328
3666.000000	0.095937
3664.000000	0.097277
3662.000000	0.098324
3660.000000	0.099155
3658.000000	0.099951
3656.000000	0.100868
3654.000000	0.101934
3652.000000	0.103186
3650.000000	0.104738
3648.000000	0.106622
3646.000000	0.108666
3644.000000	0.110663
3642.000000	0.112562
3640.000000	0.114486
3638.000000	0.116514
3636.000000	0.118555
3634.000000	0.120501
3632.000000	0.122412
3630.000000	0.124449
3628.000000	0.126641
3626.000000	0.128748
3624.000000	0.130589
3622.000000	0.132185
3620.000000	0.133645
3618.000000	0.135004
3616.000000	0.136118
3614.000000	0.136921
3612.000000	0.137548
3610.000000	0.138160
3608.000000	0.138770
3606.000000	0.139267
3604.000000	0.139636
3602.000000	0.139951
3600.000000	0.140277
3598.000000	0.140674
3596.000000	0.141157
3594.000000	0.141781
3592.000000	0.142627
3590.000000	0.143693
3588.000000	0.144970
3586.000000	0.146421
3584.000000	0.147866
3582.000000	0.149149
3580.000000	0.150167
3578.000000	0.150904
3576.000000	0.151451
3574.000000	0.151848
3572.000000	0.152127
3570.000000	0.152429
3568.000000	0.152920
3566.000000	0.153708
3564.000000	0.154700
3562.000000	0.155738
3560.000000	0.156805
3558.000000	0.157893
3556.000000	0.158934
3554.000000	0.159879
3552.000000	0.160700
3550.000000	0.161417
3548.000000	0.162121
3546.000000	0.162826
3544.000000	0.163482
3542.000000	0.164078
3540.000000	0.164599
3538.000000	0.165037
3536.000000	0.165394
3534.000000	0.165640
3532.000000	0.165808
3530.000000	0.165979
3528.000000	0.166200
3526.000000	0.166499
3524.000000	0.166901
3522.000000	0.167407
3520.000000	0.168001
3518.000000	0.168618
3516.000000	0.169180
3514.000000	0.169667
3512.000000	0.170124
3510.000000	0.170610
3508.000000	0.171132
3506.000000	0.171651
3504.000000	0.172202
3502.000000	0.172873
3500.000000	0.173683
3498.000000	0.174539
3496.000000	0.175357
3494.000000	0.176111
3492.000000	0.176807
3490.000000	0.177421
3488.000000	0.177865
3486.000000	0.178090
3484.000000	0.178151
3482.000000	0.178112
3480.000000	0.178068
3478.000000	0.178100
3476.000000	0.178191
3474.000000	0.178338
3472.000000	0.178572
3470.000000	0.178863
3468.000000	0.179150
3466.000000	0.179327
3464.000000	0.179299
3462.000000	0.179091
3460.000000	0.178773
3458.000000	0.178348
3456.000000	0.177789
3454.000000	0.177121
3452.000000	0.176416
3450.000000	0.175719
3448.000000	0.175007
3446.000000	0.174215
3444.000000	0.173346
3442.000000	0.172509
3440.000000	0.171701
3438.000000	0.170794
3436.000000	0.169774
3434.000000	0.168694
3432.000000	0.167504
3430.000000	0.166121
3428.000000	0.164493
3426.000000	0.162681
3424.000000	0.160870
3422.000000	0.159155
3420.000000	0.157508
3418.000000	0.155938
3416.000000	0.154502
3414.000000	0.153243
3412.000000	0.152126
3410.000000	0.151048
3408.000000	0.149942
3406.000000	0.148886
3404.000000	0.148004
3402.000000	0.147270
3400.000000	0.146591
3398.000000	0.145930
3396.000000	0.145280
3394.000000	0.144642
3392.000000	0.143937
3390.000000	0.143046
3388.000000	0.141991
3386.000000	0.140893
3384.000000	0.139819
3382.000000	0.138747
3380.000000	0.137657
3378.000000	0.136617
3376.000000	0.135730
3374.000000	0.135012
3372.000000	0.134384
3370.000000	0.133814
3368.000000	0.133334
3366.000000	0.132941
3364.000000	0.132551
3362.000000	0.132050
3360.000000	0.131463
3358.000000	0.130914
3356.000000	0.130423
3354.000000	0.129980
3352.000000	0.129628
3350.000000	0.129411
3348.000000	0.129313
3346.000000	0.129206
3344.000000	0.128947
3342.000000	0.128528
3340.000000	0.128024
3338.000000	0.127455
3336.000000	0.126797
3334.000000	0.126052
3332.000000	0.125295
3330.000000	0.124644
3328.000000	0.124110
3326.000000	0.123567
3324.000000	0.122971
3322.000000	0.122424
3320.000000	0.121968
3318.000000	0.121526
3316.000000	0.121028
3314.000000	0.120505
3312.000000	0.120023
3310.000000	0.119576
3308.000000	0.119103
3306.000000	0.118607
3304.000000	0.118173
3302.000000	0.117825
3300.000000	0.117511
3298.000000	0.117228
3296.000000	0.116984
3294.000000	0.116736
3292.000000	0.116423
3290.000000	0.116009
3288.000000	0.115529
3286.000000	0.115046
3284.000000	0.114563
3282.000000	0.114044
3280.000000	0.113488
3278.000000	0.112959
3276.000000	0.112501
3274.000000	0.112051
3272.000000	0.111560
3270.000000	0.111070
3268.000000	0.110681
3266.000000	0.110439
3264.000000	0.110264
3262.000000	0.110075
3260.000000	0.109895
3258.000000	0.109748
3256.000000	0.109605
3254.000000	0.109392
3252.000000	0.109073
3250.000000	0.108653
3248.000000	0.108126
3246.000000	0.107495
3244.000000	0.106762
3242.000000	0.105971
3240.000000	0.105204
3238.000000	0.104471
3236.000000	0.103774
3234.000000	0.103205
3232.000000	0.102806
3230.000000	0.102488
3228.000000	0.102140
3226.000000	0.101759
3224.000000	0.101438
3222.000000	0.101200
3220.000000	0.100920
3218.000000	0.100513
3216.000000	0.100054
3214.000000	0.099618
3212.000000	0.099189
3210.000000	0.098750
3208.000000	0.098309
3206.000000	0.097903
3204.000000	0.097588
3202.000000	0.097351
3200.000000	0.097132
3198.000000	0.096878
3196.000000	0.096542
3194.000000	0.096111
3192.000000	0.095585
3190.000000	0.094975
3188.000000	0.094325
3186.000000	0.093654
3184.000000	0.092970
3182.000000	0.092298
3180.000000	0.091698
3178.000000	0.091223
3176.000000	0.090857
3174.000000	0.090541
3172.000000	0.090269
3170.000000	0.090060
3168.000000	0.089888
3166.000000	0.089686
3164.000000	0.089409
3162.000000	0.089060
3160.000000	0.088654
3158.000000	0.088176
3156.000000	0.087629
3154.000000	0.087064
3152.000000	0.086507
3150.000000	0.085953
3148.000000	0.085413
3146.000000	0.084922
3144.000000	0.084514
3142.000000	0.084181
3140.000000	0.083881
3138.000000	0.083601
3136.000000	0.083326
3134.000000	0.083011
3132.000000	0.082633
3130.000000	0.082213
3128.000000	0.081764
3126.000000	0.081263
3124.000000	0.080708
3122.000000	0.080158
3120.000000	0.079679
3118.000000	0.079283
3116.000000	0.078945
3114.000000	0.078657
3112.000000	0.078451
3110.000000	0.078333
3108.000000	0.078239
3106.000000	0.078103
3104.000000	0.077895
3102.000000	0.077628
3100.000000	0.077362
3098.000000	0.077114
3096.000000	0.076861
3094.000000	0.076644
3092.000000	0.076522
3090.000000	0.076486
3088.000000	0.076461
3086.000000	0.076356
3084.000000	0.076174
3082.000000	0.075942
3080.000000	0.075617
3078.000000	0.075175
3076.000000	0.074683
3074.000000	0.074231
3072.000000	0.073855
3070.000000	0.073545
3068.000000	0.073321
3066.000000	0.073204
3064.000000	0.073163
3062.000000	0.073131
3060.000000	0.073042
3058.000000	0.072894
3056.000000	0.072708
3054.000000	0.072482
3052.000000	0.072234
3050.000000	0.071999
3048.000000	0.071806
3046.000000	0.071661
3044.000000	0.071541
3042.000000	0.071426
3040.000000	0.071299
3038.000000	0.071141
3036.000000	0.070913
3034.000000	0.070610
3032.000000	0.070253
3030.000000	0.069843
3028.000000	0.069413
3026.000000	0.068999
3024.000000	0.068591
3022.000000	0.068191
3020.000000	0.067816
3018.000000	0.067498
3016.000000	0.067253
3014.000000	0.067031
3012.000000	0.066797
3010.000000	0.066589
3008.000000	0.066429
3006.000000	0.066251
3004.000000	0.066015
3002.000000	0.065757
3000.000000	0.065521
2998.000000	0.065339
2996.000000	0.065211
2994.000000	0.065129
2992.000000	0.065075
2990.000000	0.064997
2988.000000	0.064878
2986.000000	0.064728
2984.000000	0.064495
2982.000000	0.064169
2980.000000	0.063826
2978.000000	0.063543
2976.000000	0.063342
2974.000000	0.063190
2972.000000	0.063062
2970.000000	0.062978
2968.000000	0.062919
2966.000000	0.062831
2964.000000	0.062704
2962.000000	0.062559
2960.000000	0.062422
2958.000000	0.062324
2956.000000	0.062248
2954.000000	0.062164
2952.000000	0.062072
2950.000000	0.061984
2948.000000	0.061905
2946.000000	0.061827
2944.000000	0.061749
2942.000000	0.061722
2940.000000	0.061759
2938.000000	0.061812
2936.000000	0.061869
2934.000000	0.061973
2932.000000	0.062108
2930.000000	0.062191
2928.000000	0.062169
2926.000000	0.062085
2924.000000	0.062001
2922.000000	0.061888
2920.000000	0.061676
2918.000000	0.061357
2916.000000	0.060993
2914.000000	0.060647
2912.000000	0.060313
2910.000000	0.059950
2908.000000	0.059594
2906.000000	0.059335
2904.000000	0.059237
2902.000000	0.059280
2900.000000	0.059389
2898.000000	0.059525
2896.000000	0.059678
2894.000000	0.059779
2892.000000	0.059735
2890.000000	0.059501
2888.000000	0.059114
2886.000000	0.058641
2884.000000	0.058135
2882.000000	0.057643
2880.000000	0.057211
2878.000000	0.056889
2876.000000	0.056710
2874.000000	0.056623
2872.000000	0.056575
2870.000000	0.056553
2868.000000	0.056541
2866.000000	0.056515
2864.000000	0.056438
2862.000000	0.056298
2860.000000	0.056108
2858.000000	0.055878
2856.000000	0.055598
2854.000000	0.055270
2852.000000	0.054945
2850.000000	0.054679
2848.000000	0.054486
2846.000000	0.054371
2844.000000	0.054323
2842.000000	0.054305
2840.000000	0.054286
2838.000000	0.054223
2836.000000	0.054072
2834.000000	0.053830
2832.000000	0.053523
2830.000000	0.053164
2828.000000	0.052775
2826.000000	0.052413
2824.000000	0.052136
2822.000000	0.051976
2820.000000	0.051925
2818.000000	0.051955
2816.000000	0.052053
2814.000000	0.052186
2812.000000	0.052271
2810.000000	0.052251
2808.000000	0.052119
2806.000000	0.051898
2804.000000	0.051622
2802.000000	0.051314
2800.000000	0.051015
2798.000000	0.050760
2796.000000	0.050570
2794.000000	0.050434
2792.000000	0.050315
2790.000000	0.050214
2788.000000	0.050137
2786.000000	0.050063
2784.000000	0.050013
2782.000000	0.050001
2780.000000	0.050012
2778.000000	0.050039
2776.000000	0.050076
2774.000000	0.050165
2772.000000	0.050334
2770.000000	0.050528
2768.000000	0.050707
2766.000000	0.050863
2764.000000	0.050974
2762.000000	0.050987
2760.000000	0.050853
2758.000000	0.050589
2756.000000	0.050255
2754.000000	0.049875
2752.000000	0.049480
2750.000000	0.049121
2748.000000	0.048840
2746.000000	0.048642
2744.000000	0.048484
2742.000000	0.048348
2740.000000	0.048230
2738.000000	0.048105
2736.000000	0.047945
2734.000000	0.047739
2732.000000	0.047501
2730.000000	0.047255
2728.000000	0.047021
2726.000000	0.046829
2724.000000	0.046675
2722.000000	0.046555
2720.000000	0.046498
2718.000000	0.046516
2716.000000	0.046581
2714.000000	0.046642
2712.000000	0.046706
2710.000000	0.046829
2708.000000	0.047002
2706.000000	0.047168
2704.000000	0.047284
2702.000000	0.047314
2700.000000	0.047242
2698.000000	0.047047
2696.000000	0.046727
2694.000000	0.046340
2692.000000	0.045935
2690.000000	0.045569
2688.000000	0.045298
2686.000000	0.045122
2684.000000	0.045020
2682.000000	0.044961
2680.000000	0.044887
2678.000000	0.044747
2676.000000	0.044542
2674.000000	0.044335
2672.000000	0.044172
2670.000000	0.044041
2668.000000	0.043918
2666.000000	0.043807
2664.000000	0.043711
2662.000000	0.043604
2660.000000	0.043450
2658.000000	0.043264
2656.000000	0.043111
2654.000000	0.043018
2652.000000	0.042967
2650.000000	0.042956
2648.000000	0.042997
2646.000000	0.043071
2644.000000	0.043130
2642.000000	0.043132
2640.000000	0.043100
2638.000000	0.043101
2636.000000	0.043153
2634.000000	0.043217
2632.000000	0.043293
2630.000000	0.043429
2628.000000	0.043628
2626.000000	0.043832
2624.000000	0.043968
2622.000000	0.044015
2620.000000	0.043999
2618.000000	0.043914
2616.000000	0.043750
2614.000000	0.043552
2612.000000	0.043370
2610.000000	0.043221
2608.000000	0.043110
2606.000000	0.043061
2604.000000	0.043086
2602.000000	0.043163
2600.000000	0.043254
2598.000000	0.043336
2596.000000	0.043408
2594.000000	0.043467
2592.000000	0.043532
2590.000000	0.043623
2588.000000	0.043716
2586.000000	0.043786
2584.000000	0.043873
2582.000000	0.044009
2580.000000	0.044116
2578.000000	0.044087
2576.000000	0.043947
2574.000000	0.043791
2572.000000	0.043646
2570.000000	0.043488
2568.000000	0.043342
2566.000000	0.043304
2564.000000	0.043419
2562.000000	0.043617
2560.000000	0.043817
2558.000000	0.044010
2556.000000	0.044211
2554.000000	0.044428
2552.000000	0.044623
2550.000000	0.044752
2548.000000	0.044839
2546.000000	0.044937
2544.000000	0.045054
2542.000000	0.045156
2540.000000	0.045236
2538.000000	0.045338
2536.000000	0.045497
2534.000000	0.045682
2532.000000	0.045825
2530.000000	0.045892
2528.000000	0.045884
2526.000000	0.045783
2524.000000	0.045605
2522.000000	0.045418
2520.000000	0.045274
2518.000000	0.045195
2516.000000	0.045193
2514.000000	0.045283
2512.000000	0.045468
2510.000000	0.045687
2508.000000	0.045855
2506.000000	0.045972
2504.000000	0.046071
2502.000000	0.046124
2500.000000	0.046111
2498.000000	0.046075
2496.000000	0.046054
2494.000000	0.046031
2492.000000	0.045957
2490.000000	0.045836
2488.000000	0.045725
2486.000000	0.045628
2484.000000	0.045509
2482.000000	0.045401
2480.000000	0.045366
2478.000000	0.045421
2476.000000	0.045538
2474.000000	0.045712
2472.000000	0.045952
2470.000000	0.046210
2468.000000	0.046430
2466.000000	0.046624
2464.000000	0.046811
2462.000000	0.046964
2460.000000	0.047042
2458.000000	0.047065
2456.000000	0.047088
2454.000000	0.047119
2452.000000	0.047124
2450.000000	0.047104
2448.000000	0.047100
2446.000000	0.047120
2444.000000	0.047154
2442.000000	0.047219
2440.000000	0.047342
2438.000000	0.047520
2436.000000	0.047713
2434.000000	0.047913
2432.000000	0.048132
2430.000000	0.048361
2428.000000	0.048548
2426.000000	0.048662
2424.000000	0.048742
2422.000000	0.048812
2420.000000	0.048866
2418.000000	0.048936
2416.000000	0.049059
2414.000000	0.049221
2412.000000	0.049386
2410.000000	0.049532
2408.000000	0.049662
2406.000000	0.049754
2404.000000	0.049752
2402.000000	0.049619
2400.000000	0.049418
2398.000000	0.049247
2396.000000	0.049119
2394.000000	0.049023
2392.000000	0.048970
2390.000000	0.048984
2388.000000	0.049097
2386.000000	0.049323
2384.000000	0.049663
2382.000000	0.050112
2380.000000	0.050647
2378.000000	0.051218
2376.000000	0.051745
2374.000000	0.052146
2372.000000	0.052336
2370.000000	0.052250
2368.000000	0.051879
2366.000000	0.051302
2364.000000	0.050680
2362.000000	0.050152
2360.000000	0.049792
2358.000000	0.049625
2356.000000	0.049680
2354.000000	0.049999
2352.000000	0.050562
2350.000000	0.051278
2348.000000	0.052012
2346.000000	0.052697
2344.000000	0.053360
2342.000000	0.053935
2340.000000	0.054253
2338.000000	0.054285
2336.000000	0.054104
2334.000000	0.053805
2332.000000	0.053441
2330.000000	0.053035
2328.000000	0.052675
2326.000000	0.052436
2324.000000	0.052272
2322.000000	0.052124
2320.000000	0.052022
2318.000000	0.051991
2316.000000	0.051996
2314.000000	0.052018
2312.000000	0.052069
2310.000000	0.052176
2308.000000	0.052322
2306.000000	0.052405
2304.000000	0.052360
2302.000000	0.052214
2300.000000	0.052004
2298.000000	0.051745
2296.000000	0.051470
2294.000000	0.051254
2292.000000	0.051173
2290.000000	0.051211
2288.000000	0.051293
2286.000000	0.051404
2284.000000	0.051557
2282.000000	0.051699
2280.000000	0.051751
2278.000000	0.051690
2276.000000	0.051569
2274.000000	0.051442
2272.000000	0.051275
2270.000000	0.051024
2268.000000	0.050740
2266.000000	0.050470
2264.000000	0.050205
2262.000000	0.049941
2260.000000	0.049715
2258.000000	0.049553
2256.000000	0.049449
2254.000000	0.049358
2252.000000	0.049238
2250.000000	0.049091
2248.000000	0.048941
2246.000000	0.048785
2244.000000	0.048617
2242.000000	0.048435
2240.000000	0.048266
2238.000000	0.048142
2236.000000	0.048027
2234.000000	0.047848
2232.000000	0.047590
2230.000000	0.047286
2228.000000	0.046963
2226.000000	0.046611
2224.000000	0.046225
2222.000000	0.045859
2220.000000	0.045539
2218.000000	0.045245
2216.000000	0.044969
2214.000000	0.044744
2212.000000	0.044611
2210.000000	0.044575
2208.000000	0.044641
2206.000000	0.044816
2204.000000	0.045068
2202.000000	0.045337
2200.000000	0.045553
2198.000000	0.045656
2196.000000	0.045620
2194.000000	0.045427
2192.000000	0.045093
2190.000000	0.044664
2188.000000	0.044186
2186.000000	0.043726
2184.000000	0.043335
2182.000000	0.043011
2180.000000	0.042748
2178.000000	0.042546
2176.000000	0.042403
2174.000000	0.042303
2172.000000	0.042214
2170.000000	0.042122
2168.000000	0.042041
2166.000000	0.041989
2164.000000	0.041955
2162.000000	0.041923
2160.000000	0.041886
2158.000000	0.041832
2156.000000	0.041735
2154.000000	0.041560
2152.000000	0.041307
2150.000000	0.041002
2148.000000	0.040649
2146.000000	0.040249
2144.000000	0.039832
2142.000000	0.039464
2140.000000	0.039211
2138.000000	0.039071
2136.000000	0.038988
2134.000000	0.038939
2132.000000	0.038920
2130.000000	0.038907
2128.000000	0.038834
2126.000000	0.038634
2124.000000	0.038300
2122.000000	0.037872
2120.000000	0.037382
2118.000000	0.036822
2116.000000	0.036174
2114.000000	0.035461
2112.000000	0.034738
2110.000000	0.034029
2108.000000	0.033326
2106.000000	0.032636
2104.000000	0.031985
2102.000000	0.031413
2100.000000	0.030953
2098.000000	0.030556
2096.000000	0.030165
2094.000000	0.029782
2092.000000	0.029421
2090.000000	0.029094
2088.000000	0.028796
2086.000000	0.028490
2084.000000	0.028196
2082.000000	0.027980
2080.000000	0.027824
2078.000000	0.027653
2076.000000	0.027426
2074.000000	0.027152
2072.000000	0.026883
2070.000000	0.026618
2068.000000	0.026303
2066.000000	0.025952
2064.000000	0.025630
2062.000000	0.025362
2060.000000	0.025119
2058.000000	0.024863
2056.000000	0.024625
2054.000000	0.024461
2052.000000	0.024361
2050.000000	0.024282
2048.000000	0.024190
2046.000000	0.024083
2044.000000	0.023982
2042.000000	0.023867
2040.000000	0.023701
2038.000000	0.023481
2036.000000	0.023236
2034.000000	0.023008
2032.000000	0.022805
2030.000000	0.022611
2028.000000	0.022433
2026.000000	0.022288
2024.000000	0.022188
2022.000000	0.022136
2020.000000	0.022128
2018.000000	0.022148
2016.000000	0.022155
2014.000000	0.022117
2012.000000	0.022022
2010.000000	0.021852
2008.000000	0.021595
2006.000000	0.021260
2004.000000	0.020894
2002.000000	0.020562
2000.000000	0.020320
1998.000000	0.020218
1996.000000	0.020263
1994.000000	0.020411
1992.000000	0.020604
1990.000000	0.020780
1988.000000	0.020888
1986.000000	0.020894
1984.000000	0.020782
1982.000000	0.020581
1980.000000	0.020337
1978.000000	0.020095
1976.000000	0.019897
1974.000000	0.019744
1972.000000	0.019619
1970.000000	0.019515
1968.000000	0.019414
1966.000000	0.019315
1964.000000	0.019212
1962.000000	0.019085
1960.000000	0.018955
1958.000000	0.018839
1956.000000	0.018725
1954.000000	0.018604
1952.000000	0.018470
1950.000000	0.018320
1948.000000	0.018164
1946.000000	0.018005
1944.000000	0.017845
1942.000000	0.017692
1940.000000	0.017549
1938.000000	0.017422
1936.000000	0.017306
1934.000000	0.017178
1932.000000	0.017010
1930.000000	0.016814
1928.000000	0.016622
1926.000000	0.016434
1924.000000	0.016235
1922.000000	0.016050
1920.000000	0.015928
1918.000000	0.015867
1916.000000	0.015832
1914.000000	0.015821
1912.000000	0.015832
1910.000000	0.015837
1908.000000	0.015819
1906.000000	0.015776
1904.000000	0.015718
1902.000000	0.015645
1900.000000	0.015543
1898.000000	0.015444
1896.000000	0.015383
1894.000000	0.015327
1892.000000	0.015232
1890.000000	0.015094
1888.000000	0.014934
1886.000000	0.014780
1884.000000	0.014621
1882.000000	0.014454
1880.000000	0.014300
1878.000000	0.014190
1876.000000	0.014157
1874.000000	0.014189
1872.000000	0.014236
1870.000000	0.014262
1868.000000	0.014271
1866.000000	0.014301
1864.000000	0.014352
1862.000000	0.014348
1860.000000	0.014260
1858.000000	0.014135
1856.000000	0.014020
1854.000000	0.013912
1852.000000	0.013778
1850.000000	0.013633
1848.000000	0.013546
1846.000000	0.013541
1844.000000	0.013574
1842.000000	0.013591
1840.000000	0.013598
1838.000000	0.013618
1836.000000	0.013637
1834.000000	0.013632
1832.000000	0.013600
1830.000000	0.013566
1828.000000	0.013556
1826.000000	0.013556
1824.000000	0.013522
1822.000000	0.013428
1820.000000	0.013291
1818.000000	0.013127
1816.000000	0.012946
1814.000000	0.012773
1812.000000	0.012645
1810.000000	0.012596
1808.000000	0.012650
1806.000000	0.012799
1804.000000	0.012998
1802.000000	0.013198
1800.000000	0.013351
1798.000000	0.013437
1796.000000	0.013464
1794.000000	0.013430
1792.000000	0.013351
1790.000000	0.013285
1788.000000	0.013260
1786.000000	0.013256
1784.000000	0.013239
1782.000000	0.013210
1780.000000	0.013189
1778.000000	0.013163
1776.000000	0.013092
1774.000000	0.012977
1772.000000	0.012869
1770.000000	0.012818
1768.000000	0.012797
1766.000000	0.012765
1764.000000	0.012737
1762.000000	0.012757
1760.000000	0.012840
1758.000000	0.012939
1756.000000	0.013023
1754.000000	0.013121
1752.000000	0.013271
1750.000000	0.013466
1748.000000	0.013656
1746.000000	0.013814
1744.000000	0.013956
1742.000000	0.014087
1740.000000	0.014210
1738.000000	0.014302
1736.000000	0.014351
1734.000000	0.014389
1732.000000	0.014442
1730.000000	0.014548
1728.000000	0.014723
1726.000000	0.014919
1724.000000	0.015112
1722.000000	0.015302
1720.000000	0.015481
1718.000000	0.015634
1716.000000	0.015710
1714.000000	0.015668
1712.000000	0.015555
1710.000000	0.015417
1708.000000	0.015283
1706.000000	0.015171
1704.000000	0.015098
1702.000000	0.015118
1700.000000	0.015249
1698.000000	0.015448
1696.000000	0.015658
1694.000000	0.015845
1692.000000	0.015999
1690.000000	0.016109
1688.000000	0.016180
1686.000000	0.016252
1684.000000	0.016375
1682.000000	0.016616
1680.000000	0.016988
1678.000000	0.017447
1676.000000	0.017950
1674.000000	0.018463
1672.000000	0.018944
1670.000000	0.019373
1668.000000	0.019725
1666.000000	0.019988
1664.000000	0.020237
1662.000000	0.020551
1660.000000	0.020940
1658.000000	0.021402
1656.000000	0.021947
1654.000000	0.022600
1652.000000	0.023408
1650.000000	0.024286
1648.000000	0.025158
1646.000000	0.026087
1644.000000	0.027181
1642.000000	0.028470
1640.000000	0.029965
1638.000000	0.031708
1636.000000	0.033818
1634.000000	0.036410
1632.000000	0.039491
1630.000000	0.043059
1628.000000	0.047162
1626.000000	0.051768
1624.000000	0.056744
1622.000000	0.061904
1620.000000	0.066971
1618.000000	0.071698
1616.000000	0.075810
1614.000000	0.078924
1612.000000	0.080779
1610.000000	0.081293
1608.000000	0.080474
1606.000000	0.078398
1604.000000	0.075203
1602.000000	0.071175
1600.000000	0.066695
1598.000000	0.062056
1596.000000	0.057455
1594.000000	0.053057
1592.000000	0.049010
1590.000000	0.045415
1588.000000	0.042274
1586.000000	0.039556
1584.000000	0.037266
1582.000000	0.035380
1580.000000	0.033824
1578.000000	0.032522
1576.000000	0.031409
1574.000000	0.030436
1572.000000	0.029555
1570.000000	0.028764
1568.000000	0.028071
1566.000000	0.027471
1564.000000	0.026946
1562.000000	0.026485
1560.000000	0.026102
1558.000000	0.025777
1556.000000	0.025378
1554.000000	0.024889
1552.000000	0.024396
1550.000000	0.023967
1548.000000	0.023607
1546.000000	0.023294
1544.000000	0.023053
1542.000000	0.022952
1540.000000	0.022969
1538.000000	0.022962
1536.000000	0.022836
1534.000000	0.022596
1532.000000	0.022260
1530.000000	0.021842
1528.000000	0.021355
1526.000000	0.020850
1524.000000	0.020403
1522.000000	0.020064
1520.000000	0.019841
1518.000000	0.019696
1516.000000	0.019625
1514.000000	0.019623
1512.000000	0.019647
1510.000000	0.019669
1508.000000	0.019692
1506.000000	0.019743
1504.000000	0.019818
1502.000000	0.019871
1500.000000	0.019885
1498.000000	0.019874
1496.000000	0.019844
1494.000000	0.019776
1492.000000	0.019666
1490.000000	0.019533
1488.000000	0.019411
1486.000000	0.019331
1484.000000	0.019310
1482.000000	0.019343
1480.000000	0.019403
1478.000000	0.019473
1476.000000	0.019564
1474.000000	0.019663
1472.000000	0.019735
1470.000000	0.019764
1468.000000	0.019772
1466.000000	0.019797
1464.000000	0.019850
1462.000000	0.019913
1460.000000	0.019975
1458.000000	0.020025
1456.000000	0.020040
1454.000000	0.019998
1452.000000	0.019885
1450.000000	0.019679
1448.000000	0.019375
1446.000000	0.019012
1444.000000	0.018654
1442.000000	0.018355
1440.000000	0.018119
1438.000000	0.017933
1436.000000	0.017817
1434.000000	0.017769
1432.000000	0.017751
1430.000000	0.017728
1428.000000	0.017658
1426.000000	0.017529
1424.000000	0.017350
1422.000000	0.017142
1420.000000	0.016929
1418.000000	0.016707
1416.000000	0.016453
1414.000000	0.016179
1412.000000	0.015916
1410.000000	0.015678
1408.000000	0.015442
1406.000000	0.015197
1404.000000	0.014944
1402.000000	0.014693
1400.000000	0.014471
1398.000000	0.014279
1396.000000	0.014093
1394.000000	0.013927
1392.000000	0.013791
1390.000000	0.013701
1388.000000	0.013666
1386.000000	0.013647
1384.000000	0.013611
1382.000000	0.013553
1380.000000	0.013464
1378.000000	0.013333
1376.000000	0.013148
1374.000000	0.012923
1372.000000	0.012709
1370.000000	0.012543
1368.000000	0.012428
1366.000000	0.012364
1364.000000	0.012349
1362.000000	0.012377
1360.000000	0.012425
1358.000000	0.012472
1356.000000	0.012513
1354.000000	0.012541
1352.000000	0.012559
1350.000000	0.012579
1348.000000	0.012599
1346.000000	0.012617
1344.000000	0.012630
1342.000000	0.012642
1340.000000	0.012674
1338.000000	0.012743
1336.000000	0.012851
1334.000000	0.013021
1332.000000	0.013250
1330.000000	0.013497
1328.000000	0.013745
1326.000000	0.013996
1324.000000	0.014258
1322.000000	0.014534
1320.000000	0.014807
1318.000000	0.015084
1316.000000	0.015415
1314.000000	0.015820
1312.000000	0.016262
1310.000000	0.016687
1308.000000	0.017079
1306.000000	0.017450
1304.000000	0.017817
1302.000000	0.018168
1300.000000	0.018486
1298.000000	0.018783
1296.000000	0.019111
1294.000000	0.019507
1292.000000	0.019952
1290.000000	0.020409
1288.000000	0.020868
1286.000000	0.021352
1284.000000	0.021878
1282.000000	0.022430
1280.000000	0.022995
1278.000000	0.023601
1276.000000	0.024270
1274.000000	0.025007
1272.000000	0.025816
1270.000000	0.026691
1268.000000	0.027626
1266.000000	0.028628
1264.000000	0.029710
1262.000000	0.030878
1260.000000	0.032129
1258.000000	0.033471
1256.000000	0.034934
1254.000000	0.036537
1252.000000	0.038284
1250.000000	0.040187
1248.000000	0.042268
1246.000000	0.044548
1244.000000	0.047024
1242.000000	0.049682
1240.000000	0.052529
1238.000000	0.055579
1236.000000	0.058851
1234.000000	0.062358
1232.000000	0.066087
1230.000000	0.070004
1228.000000	0.074068
1226.000000	0.078219
1224.000000	0.082386
1222.000000	0.086457
1220.000000	0.090297
1218.000000	0.093818
1216.000000	0.097000
1214.000000	0.099840
1212.000000	0.102334
1210.000000	0.104506
1208.000000	0.106443
1206.000000	0.108277
1204.000000	0.110085
1202.000000	0.111866
1200.000000	0.113640
1198.000000	0.115426
1196.000000	0.117205
1194.000000	0.118950
1192.000000	0.120602
1190.000000	0.122101
1188.000000	0.123447
1186.000000	0.124669
1184.000000	0.125785
1182.000000	0.126810
1180.000000	0.127765
1178.000000	0.128699
1176.000000	0.129662
1174.000000	0.130647
1172.000000	0.131634
1170.000000	0.132602
1168.000000	0.133519
1166.000000	0.134362
1164.000000	0.135117
1162.000000	0.135767
1160.000000	0.136291
1158.000000	0.136677
1156.000000	0.136925
1154.000000	0.137050
1152.000000	0.137085
1150.000000	0.137078
1148.000000	0.137063
1146.000000	0.137085
1144.000000	0.137209
1142.000000	0.137473
1140.000000	0.137887
1138.000000	0.138427
1136.000000	0.139033
1134.000000	0.139667
1132.000000	0.140303
1130.000000	0.140881
1128.000000	0.141343
1126.000000	0.141664
1124.000000	0.141837
1122.000000	0.141897
1120.000000	0.141875
1118.000000	0.141788
1116.000000	0.141681
1114.000000	0.141602
1112.000000	0.141581
1110.000000	0.141626
1108.000000	0.141730
1106.000000	0.141862
1104.000000	0.141960
1102.000000	0.141992
1100.000000	0.141999
1098.000000	0.142061
1096.000000	0.142265
1094.000000	0.142690
1092.000000	0.143434
1090.000000	0.144596
1088.000000	0.146154
1086.000000	0.147960
1084.000000	0.149849
1082.000000	0.151637
1080.000000	0.153080
1078.000000	0.153954
1076.000000	0.154173
1074.000000	0.153763
1072.000000	0.152794
1070.000000	0.151329
1068.000000	0.149457
1066.000000	0.147333
1064.000000	0.145093
1062.000000	0.142750
1060.000000	0.140266
1058.000000	0.137598
1056.000000	0.134713
1054.000000	0.131651
1052.000000	0.128471
1050.000000	0.125176
1048.000000	0.121770
1046.000000	0.118304
1044.000000	0.114868
1042.000000	0.111562
1040.000000	0.108398
1038.000000	0.105334
1036.000000	0.102393
1034.000000	0.099652
1032.000000	0.097161
1030.000000	0.094933
1028.000000	0.092972
1026.000000	0.091300
1024.000000	0.089939
1022.000000	0.088856
1020.000000	0.087974
1018.000000	0.087236
1016.000000	0.086568
1014.000000	0.085852
1012.000000	0.084993
1010.000000	0.083943
1008.000000	0.082698
1006.000000	0.081272
1004.000000	0.079693
1002.000000	0.078041
1000.000000	0.076399
998.000000	0.074801
996.000000	0.073280
994.000000	0.071857
992.000000	0.070536
990.000000	0.069296
988.000000	0.068096
986.000000	0.066923
984.000000	0.065809
982.000000	0.064754
980.000000	0.063742
978.000000	0.062787
976.000000	0.061888
974.000000	0.061027
972.000000	0.060187
970.000000	0.059362
968.000000	0.058562
966.000000	0.057775
964.000000	0.056958
962.000000	0.056102
960.000000	0.055217
958.000000	0.054312
956.000000	0.053376
954.000000	0.052388
952.000000	0.051370
950.000000	0.050381
948.000000	0.049454
946.000000	0.048577
944.000000	0.047739
942.000000	0.046962
940.000000	0.046263
938.000000	0.045598
936.000000	0.044911
934.000000	0.044211
932.000000	0.043534
930.000000	0.042835
928.000000	0.042028
926.000000	0.041111
924.000000	0.040135
922.000000	0.039094
920.000000	0.037954
918.000000	0.036729
916.000000	0.035494
914.000000	0.034296
912.000000	0.033100
910.000000	0.031854
908.000000	0.030571
906.000000	0.029270
904.000000	0.027893
902.000000	0.026405
900.000000	0.024845
898.000000	0.023262
896.000000	0.021693
894.000000	0.020123
892.000000	0.018510
890.000000	0.016876
888.000000	0.015246
886.000000	0.013611
884.000000	0.011988
882.000000	0.010409
880.000000	0.008930
878.000000	0.007645
876.000000	0.006581
874.000000	0.005715
872.000000	0.005049
870.000000	0.004598
868.000000	0.004367
866.000000	0.004317
864.000000	0.004372
862.000000	0.004485
860.000000	0.004606
858.000000	0.004666
856.000000	0.004610
854.000000	0.004387
852.000000	0.004001
850.000000	0.003521
848.000000	0.002983
846.000000	0.002389
844.000000	0.001774
842.000000	0.001193
840.000000	0.000649
838.000000	0.000085
836.000000	-0.000576
834.000000	-0.001341
832.000000	-0.002168
830.000000	-0.003093
828.000000	-0.004175
826.000000	-0.005380
824.000000	-0.006618
822.000000	-0.007843
820.000000	-0.009106
818.000000	-0.010482
816.000000	-0.011963
814.000000	-0.013520
812.000000	-0.015170
810.000000	-0.016931
808.000000	-0.018802
806.000000	-0.020713
804.000000	-0.022584
802.000000	-0.024399
800.000000	-0.026157
798.000000	-0.027865
796.000000	-0.029529
794.000000	-0.031102
792.000000	-0.032530
790.000000	-0.033794
788.000000	-0.034870
786.000000	-0.035743
784.000000	-0.036400
782.000000	-0.036824
780.000000	-0.037078
778.000000	-0.037233
776.000000	-0.037305
774.000000	-0.037314
772.000000	-0.037245
770.000000	-0.037079
768.000000	-0.036837
766.000000	-0.036534
764.000000	-0.036174
762.000000	-0.035784
760.000000	-0.035404
758.000000	-0.035067
756.000000	-0.034790
754.000000	-0.034520
752.000000	-0.034190
750.000000	-0.033804
748.000000	-0.033323
746.000000	-0.032711
744.000000	-0.032024
742.000000	-0.031259
740.000000	-0.030427
738.000000	-0.029541
736.000000	-0.028548
734.000000	-0.027445
732.000000	-0.026250
730.000000	-0.024957
728.000000	-0.023571
726.000000	-0.022088
724.000000	-0.020499
722.000000	-0.018759
720.000000	-0.016845
718.000000	-0.014711
716.000000	-0.012120
714.000000	-0.008924
712.000000	-0.005513
710.000000	-0.002480
708.000000	0.000031
706.000000	0.002354
704.000000	0.004542
702.000000	0.005974
700.000000	0.006399
