PE IR       SUBTECH     SPECTRUM    ASCII       PEDS        4.00        
   -1
LS_4.asc
14/09/24
10:00:58.00
14/09/26
10:33:25.00
nystrom.12
Co-added spectrum 3 at 1520, -2355 (Image Marker 1)
700.000000
#HDR
-1
-1
#GR
cm-1
A
1.0
0.0
4000.000000
-2.000000
1651
8
0.122775
-0.006191
#DATA
4000.000000	0.001041
3998.000000	0.000775
3996.000000	0.000536
3994.000000	0.000343
3992.000000	0.000172
3990.000000	0.000000
3988.000000	-0.000187
3986.000000	-0.000347
3984.000000	-0.000455
3982.000000	-0.000500
3980.000000	-0.000505
3978.000000	-0.000511
3976.000000	-0.000542
3974.000000	-0.000597
3972.000000	-0.000668
3970.000000	-0.000761
3968.000000	-0.000885
3966.000000	-0.001027
3964.000000	-0.001158
3962.000000	-0.001260
3960.000000	-0.001360
3958.000000	-0.001474
3956.000000	-0.001559
3954.000000	-0.001589
3952.000000	-0.001594
3950.000000	-0.001586
3948.000000	-0.001578
3946.000000	-0.001611
3944.000000	-0.001673
3942.000000	-0.001721
3940.000000	-0.001776
3938.000000	-0.001865
3936.000000	-0.001946
3934.000000	-0.001990
3932.000000	-0.002010
3930.000000	-0.001991
3928.000000	-0.001954
3926.000000	-0.001950
3924.000000	-0.001977
3922.000000	-0.002027
3920.000000	-0.002153
3918.000000	-0.002370
3916.000000	-0.002627
3914.000000	-0.002903
3912.000000	-0.003174
3910.000000	-0.003391
3908.000000	-0.003549
3906.000000	-0.003671
3904.000000	-0.003739
3902.000000	-0.003713
3900.000000	-0.003635
3898.000000	-0.003580
3896.000000	-0.003533
3894.000000	-0.003477
3892.000000	-0.003410
3890.000000	-0.003302
3888.000000	-0.003161
3886.000000	-0.003012
3884.000000	-0.002840
3882.000000	-0.002638
3880.000000	-0.002427
3878.000000	-0.002233
3876.000000	-0.002074
3874.000000	-0.001969
3872.000000	-0.001952
3870.000000	-0.001993
3868.000000	-0.002047
3866.000000	-0.002131
3864.000000	-0.002259
3862.000000	-0.002435
3860.000000	-0.002656
3858.000000	-0.002861
3856.000000	-0.002976
3854.000000	-0.002961
3852.000000	-0.002894
3850.000000	-0.002951
3848.000000	-0.003089
3846.000000	-0.003234
3844.000000	-0.003355
3842.000000	-0.003463
3840.000000	-0.003579
3838.000000	-0.003756
3836.000000	-0.004068
3834.000000	-0.004436
3832.000000	-0.004694
3830.000000	-0.004772
3828.000000	-0.004714
3826.000000	-0.004598
3824.000000	-0.004488
3822.000000	-0.004381
3820.000000	-0.004219
3818.000000	-0.004009
3816.000000	-0.003809
3814.000000	-0.003719
3812.000000	-0.003802
3810.000000	-0.003986
3808.000000	-0.004173
3806.000000	-0.004344
3804.000000	-0.004529
3802.000000	-0.004696
3800.000000	-0.004824
3798.000000	-0.004960
3796.000000	-0.005072
3794.000000	-0.005173
3792.000000	-0.005302
3790.000000	-0.005439
3788.000000	-0.005573
3786.000000	-0.005732
3784.000000	-0.005905
3782.000000	-0.006045
3780.000000	-0.006127
3778.000000	-0.006151
3776.000000	-0.006152
3774.000000	-0.006170
3772.000000	-0.006191
3770.000000	-0.006158
3768.000000	-0.006070
3766.000000	-0.005996
3764.000000	-0.005945
3762.000000	-0.005884
3760.000000	-0.005760
3758.000000	-0.005531
3756.000000	-0.005219
3754.000000	-0.004899
3752.000000	-0.004627
3750.000000	-0.004389
3748.000000	-0.004159
3746.000000	-0.003950
3744.000000	-0.003797
3742.000000	-0.003769
3740.000000	-0.003874
3738.000000	-0.004047
3736.000000	-0.004198
3734.000000	-0.004251
3732.000000	-0.004222
3730.000000	-0.004240
3728.000000	-0.004352
3726.000000	-0.004481
3724.000000	-0.004556
3722.000000	-0.004590
3720.000000	-0.004617
3718.000000	-0.004652
3716.000000	-0.004673
3714.000000	-0.004605
3712.000000	-0.004397
3710.000000	-0.004090
3708.000000	-0.003764
3706.000000	-0.003425
3704.000000	-0.003025
3702.000000	-0.002549
3700.000000	-0.002050
3698.000000	-0.001585
3696.000000	-0.001140
3694.000000	-0.000661
3692.000000	-0.000121
3690.000000	0.000467
3688.000000	0.001051
3686.000000	0.001556
3684.000000	0.002031
3682.000000	0.002560
3680.000000	0.003157
3678.000000	0.003792
3676.000000	0.004428
3674.000000	0.005059
3672.000000	0.005721
3670.000000	0.006481
3668.000000	0.007294
3666.000000	0.008019
3664.000000	0.008667
3662.000000	0.009333
3660.000000	0.010076
3658.000000	0.010923
3656.000000	0.011869
3654.000000	0.012850
3652.000000	0.013878
3650.000000	0.015113
3648.000000	0.016635
3646.000000	0.018235
3644.000000	0.019807
3642.000000	0.021371
3640.000000	0.022938
3638.000000	0.024509
3636.000000	0.026078
3634.000000	0.027574
3632.000000	0.028915
3630.000000	0.030132
3628.000000	0.031327
3626.000000	0.032506
3624.000000	0.033614
3622.000000	0.034649
3620.000000	0.035632
3618.000000	0.036559
3616.000000	0.037434
3614.000000	0.038274
3612.000000	0.039041
3610.000000	0.039696
3608.000000	0.040277
3606.000000	0.040835
3604.000000	0.041360
3602.000000	0.041848
3600.000000	0.042338
3598.000000	0.042835
3596.000000	0.043330
3594.000000	0.043873
3592.000000	0.044481
3590.000000	0.045089
3588.000000	0.045687
3586.000000	0.046311
3584.000000	0.046935
3582.000000	0.047535
3580.000000	0.048152
3578.000000	0.048782
3576.000000	0.049378
3574.000000	0.049955
3572.000000	0.050534
3570.000000	0.051087
3568.000000	0.051649
3566.000000	0.052266
3564.000000	0.052835
3562.000000	0.053285
3560.000000	0.053655
3558.000000	0.053991
3556.000000	0.054307
3554.000000	0.054593
3552.000000	0.054829
3550.000000	0.055019
3548.000000	0.055228
3546.000000	0.055525
3544.000000	0.055930
3542.000000	0.056425
3540.000000	0.056987
3538.000000	0.057621
3536.000000	0.058335
3534.000000	0.059083
3532.000000	0.059779
3530.000000	0.060390
3528.000000	0.060950
3526.000000	0.061466
3524.000000	0.061924
3522.000000	0.062305
3520.000000	0.062555
3518.000000	0.062698
3516.000000	0.062860
3514.000000	0.063118
3512.000000	0.063432
3510.000000	0.063728
3508.000000	0.063973
3506.000000	0.064183
3504.000000	0.064412
3502.000000	0.064692
3500.000000	0.064978
3498.000000	0.065193
3496.000000	0.065307
3494.000000	0.065375
3492.000000	0.065503
3490.000000	0.065695
3488.000000	0.065862
3486.000000	0.065984
3484.000000	0.066101
3482.000000	0.066215
3480.000000	0.066302
3478.000000	0.066329
3476.000000	0.066260
3474.000000	0.066138
3472.000000	0.066069
3470.000000	0.066061
3468.000000	0.066031
3466.000000	0.065939
3464.000000	0.065814
3462.000000	0.065714
3460.000000	0.065650
3458.000000	0.065550
3456.000000	0.065319
3454.000000	0.064927
3452.000000	0.064418
3450.000000	0.063840
3448.000000	0.063194
3446.000000	0.062465
3444.000000	0.061660
3442.000000	0.060810
3440.000000	0.059931
3438.000000	0.059017
3436.000000	0.058088
3434.000000	0.057190
3432.000000	0.056348
3430.000000	0.055558
3428.000000	0.054805
3426.000000	0.054062
3424.000000	0.053316
3422.000000	0.052607
3420.000000	0.051975
3418.000000	0.051378
3416.000000	0.050746
3414.000000	0.050039
3412.000000	0.049270
3410.000000	0.048504
3408.000000	0.047789
3406.000000	0.047124
3404.000000	0.046469
3402.000000	0.045803
3400.000000	0.045160
3398.000000	0.044614
3396.000000	0.044190
3394.000000	0.043821
3392.000000	0.043448
3390.000000	0.043050
3388.000000	0.042615
3386.000000	0.042159
3384.000000	0.041705
3382.000000	0.041231
3380.000000	0.040723
3378.000000	0.040219
3376.000000	0.039757
3374.000000	0.039348
3372.000000	0.038991
3370.000000	0.038672
3368.000000	0.038384
3366.000000	0.038145
3364.000000	0.037959
3362.000000	0.037787
3360.000000	0.037590
3358.000000	0.037364
3356.000000	0.037119
3354.000000	0.036871
3352.000000	0.036614
3350.000000	0.036301
3348.000000	0.035907
3346.000000	0.035469
3344.000000	0.035032
3342.000000	0.034601
3340.000000	0.034184
3338.000000	0.033793
3336.000000	0.033420
3334.000000	0.033062
3332.000000	0.032738
3330.000000	0.032450
3328.000000	0.032159
3326.000000	0.031839
3324.000000	0.031494
3322.000000	0.031139
3320.000000	0.030778
3318.000000	0.030431
3316.000000	0.030127
3314.000000	0.029856
3312.000000	0.029594
3310.000000	0.029343
3308.000000	0.029102
3306.000000	0.028830
3304.000000	0.028513
3302.000000	0.028181
3300.000000	0.027837
3298.000000	0.027465
3296.000000	0.027073
3294.000000	0.026685
3292.000000	0.026343
3290.000000	0.026085
3288.000000	0.025913
3286.000000	0.025788
3284.000000	0.025685
3282.000000	0.025605
3280.000000	0.025555
3278.000000	0.025522
3276.000000	0.025457
3274.000000	0.025317
3272.000000	0.025096
3270.000000	0.024798
3268.000000	0.024438
3266.000000	0.024023
3264.000000	0.023544
3262.000000	0.023019
3260.000000	0.022502
3258.000000	0.022021
3256.000000	0.021573
3254.000000	0.021168
3252.000000	0.020804
3250.000000	0.020469
3248.000000	0.020162
3246.000000	0.019870
3244.000000	0.019573
3242.000000	0.019261
3240.000000	0.018942
3238.000000	0.018613
3236.000000	0.018274
3234.000000	0.017954
3232.000000	0.017660
3230.000000	0.017392
3228.000000	0.017163
3226.000000	0.016980
3224.000000	0.016847
3222.000000	0.016764
3220.000000	0.016729
3218.000000	0.016715
3216.000000	0.016696
3214.000000	0.016651
3212.000000	0.016557
3210.000000	0.016393
3208.000000	0.016155
3206.000000	0.015863
3204.000000	0.015538
3202.000000	0.015195
3200.000000	0.014844
3198.000000	0.014483
3196.000000	0.014121
3194.000000	0.013785
3192.000000	0.013489
3190.000000	0.013234
3188.000000	0.013005
3186.000000	0.012752
3184.000000	0.012450
3182.000000	0.012101
3180.000000	0.011715
3178.000000	0.011315
3176.000000	0.010906
3174.000000	0.010464
3172.000000	0.009974
3170.000000	0.009470
3168.000000	0.009032
3166.000000	0.008709
3164.000000	0.008492
3162.000000	0.008354
3160.000000	0.008283
3158.000000	0.008262
3156.000000	0.008261
3154.000000	0.008242
3152.000000	0.008165
3150.000000	0.008026
3148.000000	0.007843
3146.000000	0.007603
3144.000000	0.007289
3142.000000	0.006936
3140.000000	0.006591
3138.000000	0.006289
3136.000000	0.006049
3134.000000	0.005848
3132.000000	0.005645
3130.000000	0.005430
3128.000000	0.005235
3126.000000	0.005059
3124.000000	0.004866
3122.000000	0.004671
3120.000000	0.004514
3118.000000	0.004398
3116.000000	0.004317
3114.000000	0.004254
3112.000000	0.004197
3110.000000	0.004151
3108.000000	0.004121
3106.000000	0.004095
3104.000000	0.004044
3102.000000	0.003953
3100.000000	0.003820
3098.000000	0.003664
3096.000000	0.003522
3094.000000	0.003389
3092.000000	0.003234
3090.000000	0.003037
3088.000000	0.002795
3086.000000	0.002506
3084.000000	0.002183
3082.000000	0.001848
3080.000000	0.001493
3078.000000	0.001123
3076.000000	0.000781
3074.000000	0.000500
3072.000000	0.000281
3070.000000	0.000129
3068.000000	0.000051
3066.000000	0.000017
3064.000000	-0.000003
3062.000000	-0.000004
3060.000000	0.000005
3058.000000	-0.000009
3056.000000	-0.000073
3054.000000	-0.000176
3052.000000	-0.000282
3050.000000	-0.000381
3048.000000	-0.000470
3046.000000	-0.000565
3044.000000	-0.000686
3042.000000	-0.000798
3040.000000	-0.000855
3038.000000	-0.000859
3036.000000	-0.000860
3034.000000	-0.000904
3032.000000	-0.000978
3030.000000	-0.001026
3028.000000	-0.001034
3026.000000	-0.001054
3024.000000	-0.001136
3022.000000	-0.001285
3020.000000	-0.001472
3018.000000	-0.001658
3016.000000	-0.001823
3014.000000	-0.001991
3012.000000	-0.002186
3010.000000	-0.002381
3008.000000	-0.002519
3006.000000	-0.002578
3004.000000	-0.002589
3002.000000	-0.002574
3000.000000	-0.002539
2998.000000	-0.002495
2996.000000	-0.002443
2994.000000	-0.002381
2992.000000	-0.002343
2990.000000	-0.002360
2988.000000	-0.002413
2986.000000	-0.002485
2984.000000	-0.002595
2982.000000	-0.002759
2980.000000	-0.002970
2978.000000	-0.003216
2976.000000	-0.003468
2974.000000	-0.003689
2972.000000	-0.003894
2970.000000	-0.004111
2968.000000	-0.004302
2966.000000	-0.004424
2964.000000	-0.004457
2962.000000	-0.004390
2960.000000	-0.004235
2958.000000	-0.004036
2956.000000	-0.003802
2954.000000	-0.003513
2952.000000	-0.003205
2950.000000	-0.002924
2948.000000	-0.002696
2946.000000	-0.002556
2944.000000	-0.002511
2942.000000	-0.002537
2940.000000	-0.002616
2938.000000	-0.002740
2936.000000	-0.002883
2934.000000	-0.003009
2932.000000	-0.003096
2930.000000	-0.003136
2928.000000	-0.003135
2926.000000	-0.003106
2924.000000	-0.003052
2922.000000	-0.002982
2920.000000	-0.002920
2918.000000	-0.002882
2916.000000	-0.002868
2914.000000	-0.002877
2912.000000	-0.002883
2910.000000	-0.002850
2908.000000	-0.002778
2906.000000	-0.002701
2904.000000	-0.002629
2902.000000	-0.002545
2900.000000	-0.002477
2898.000000	-0.002481
2896.000000	-0.002578
2894.000000	-0.002765
2892.000000	-0.003000
2890.000000	-0.003230
2888.000000	-0.003445
2886.000000	-0.003665
2884.000000	-0.003874
2882.000000	-0.004020
2880.000000	-0.004062
2878.000000	-0.003983
2876.000000	-0.003803
2874.000000	-0.003582
2872.000000	-0.003352
2870.000000	-0.003090
2868.000000	-0.002782
2866.000000	-0.002436
2864.000000	-0.002086
2862.000000	-0.001785
2860.000000	-0.001560
2858.000000	-0.001402
2856.000000	-0.001295
2854.000000	-0.001242
2852.000000	-0.001263
2850.000000	-0.001360
2848.000000	-0.001511
2846.000000	-0.001670
2844.000000	-0.001801
2842.000000	-0.001917
2840.000000	-0.002034
2838.000000	-0.002132
2836.000000	-0.002204
2834.000000	-0.002257
2832.000000	-0.002288
2830.000000	-0.002304
2828.000000	-0.002312
2826.000000	-0.002308
2824.000000	-0.002299
2822.000000	-0.002303
2820.000000	-0.002308
2818.000000	-0.002296
2816.000000	-0.002292
2814.000000	-0.002313
2812.000000	-0.002365
2810.000000	-0.002461
2808.000000	-0.002566
2806.000000	-0.002639
2804.000000	-0.002701
2802.000000	-0.002766
2800.000000	-0.002818
2798.000000	-0.002857
2796.000000	-0.002902
2794.000000	-0.002942
2792.000000	-0.002953
2790.000000	-0.002932
2788.000000	-0.002890
2786.000000	-0.002850
2784.000000	-0.002831
2782.000000	-0.002812
2780.000000	-0.002756
2778.000000	-0.002654
2776.000000	-0.002530
2774.000000	-0.002416
2772.000000	-0.002334
2770.000000	-0.002274
2768.000000	-0.002197
2766.000000	-0.002091
2764.000000	-0.001965
2762.000000	-0.001828
2760.000000	-0.001698
2758.000000	-0.001583
2756.000000	-0.001476
2754.000000	-0.001383
2752.000000	-0.001316
2750.000000	-0.001296
2748.000000	-0.001345
2746.000000	-0.001470
2744.000000	-0.001655
2742.000000	-0.001872
2740.000000	-0.002108
2738.000000	-0.002343
2736.000000	-0.002572
2734.000000	-0.002791
2732.000000	-0.002980
2730.000000	-0.003119
2728.000000	-0.003209
2726.000000	-0.003274
2724.000000	-0.003330
2722.000000	-0.003376
2720.000000	-0.003400
2718.000000	-0.003365
2716.000000	-0.003258
2714.000000	-0.003112
2712.000000	-0.002985
2710.000000	-0.002908
2708.000000	-0.002849
2706.000000	-0.002770
2704.000000	-0.002690
2702.000000	-0.002659
2700.000000	-0.002714
2698.000000	-0.002849
2696.000000	-0.002994
2694.000000	-0.003069
2692.000000	-0.003068
2690.000000	-0.003039
2688.000000	-0.003010
2686.000000	-0.002989
2684.000000	-0.002964
2682.000000	-0.002916
2680.000000	-0.002851
2678.000000	-0.002799
2676.000000	-0.002784
2674.000000	-0.002805
2672.000000	-0.002839
2670.000000	-0.002847
2668.000000	-0.002800
2666.000000	-0.002709
2664.000000	-0.002603
2662.000000	-0.002495
2660.000000	-0.002386
2658.000000	-0.002289
2656.000000	-0.002210
2654.000000	-0.002136
2652.000000	-0.002052
2650.000000	-0.001964
2648.000000	-0.001890
2646.000000	-0.001825
2644.000000	-0.001747
2642.000000	-0.001651
2640.000000	-0.001530
2638.000000	-0.001395
2636.000000	-0.001294
2634.000000	-0.001252
2632.000000	-0.001246
2630.000000	-0.001249
2628.000000	-0.001256
2626.000000	-0.001252
2624.000000	-0.001240
2622.000000	-0.001232
2620.000000	-0.001200
2618.000000	-0.001107
2616.000000	-0.000952
2614.000000	-0.000755
2612.000000	-0.000544
2610.000000	-0.000350
2608.000000	-0.000185
2606.000000	-0.000044
2604.000000	0.000078
2602.000000	0.000171
2600.000000	0.000221
2598.000000	0.000250
2596.000000	0.000287
2594.000000	0.000331
2592.000000	0.000385
2590.000000	0.000461
2588.000000	0.000558
2586.000000	0.000669
2584.000000	0.000794
2582.000000	0.000914
2580.000000	0.001017
2578.000000	0.001120
2576.000000	0.001237
2574.000000	0.001360
2572.000000	0.001474
2570.000000	0.001572
2568.000000	0.001670
2566.000000	0.001801
2564.000000	0.001970
2562.000000	0.002142
2560.000000	0.002296
2558.000000	0.002434
2556.000000	0.002557
2554.000000	0.002677
2552.000000	0.002805
2550.000000	0.002920
2548.000000	0.002991
2546.000000	0.003018
2544.000000	0.003013
2542.000000	0.002999
2540.000000	0.003012
2538.000000	0.003069
2536.000000	0.003146
2534.000000	0.003209
2532.000000	0.003269
2530.000000	0.003372
2528.000000	0.003529
2526.000000	0.003712
2524.000000	0.003885
2522.000000	0.004010
2520.000000	0.004063
2518.000000	0.004065
2516.000000	0.004060
2514.000000	0.004054
2512.000000	0.004040
2510.000000	0.004038
2508.000000	0.004064
2506.000000	0.004131
2504.000000	0.004255
2502.000000	0.004424
2500.000000	0.004600
2498.000000	0.004756
2496.000000	0.004875
2494.000000	0.004942
2492.000000	0.004954
2490.000000	0.004932
2488.000000	0.004907
2486.000000	0.004901
2484.000000	0.004939
2482.000000	0.005029
2480.000000	0.005171
2478.000000	0.005367
2476.000000	0.005624
2474.000000	0.005927
2472.000000	0.006222
2470.000000	0.006477
2468.000000	0.006707
2466.000000	0.006928
2464.000000	0.007130
2462.000000	0.007303
2460.000000	0.007436
2458.000000	0.007515
2456.000000	0.007556
2454.000000	0.007585
2452.000000	0.007609
2450.000000	0.007607
2448.000000	0.007573
2446.000000	0.007523
2444.000000	0.007459
2442.000000	0.007381
2440.000000	0.007311
2438.000000	0.007250
2436.000000	0.007165
2434.000000	0.007050
2432.000000	0.006924
2430.000000	0.006800
2428.000000	0.006697
2426.000000	0.006638
2424.000000	0.006628
2422.000000	0.006664
2420.000000	0.006753
2418.000000	0.006883
2416.000000	0.007031
2414.000000	0.007193
2412.000000	0.007360
2410.000000	0.007525
2408.000000	0.007674
2406.000000	0.007774
2404.000000	0.007814
2402.000000	0.007827
2400.000000	0.007836
2398.000000	0.007828
2396.000000	0.007790
2394.000000	0.007732
2392.000000	0.007648
2390.000000	0.007531
2388.000000	0.007372
2386.000000	0.007158
2384.000000	0.006912
2382.000000	0.006685
2380.000000	0.006516
2378.000000	0.006408
2376.000000	0.006328
2374.000000	0.006256
2372.000000	0.006230
2370.000000	0.006303
2368.000000	0.006492
2366.000000	0.006711
2364.000000	0.006864
2362.000000	0.006914
2360.000000	0.006888
2358.000000	0.006888
2356.000000	0.006938
2354.000000	0.006954
2352.000000	0.006836
2350.000000	0.006578
2348.000000	0.006273
2346.000000	0.006009
2344.000000	0.005787
2342.000000	0.005537
2340.000000	0.005243
2338.000000	0.004959
2336.000000	0.004805
2334.000000	0.004851
2332.000000	0.005052
2330.000000	0.005296
2328.000000	0.005496
2326.000000	0.005675
2324.000000	0.005869
2322.000000	0.006047
2320.000000	0.006141
2318.000000	0.006125
2316.000000	0.006028
2314.000000	0.005900
2312.000000	0.005776
2310.000000	0.005648
2308.000000	0.005510
2306.000000	0.005379
2304.000000	0.005272
2302.000000	0.005186
2300.000000	0.005092
2298.000000	0.004958
2296.000000	0.004810
2294.000000	0.004696
2292.000000	0.004628
2290.000000	0.004588
2288.000000	0.004557
2286.000000	0.004523
2284.000000	0.004511
2282.000000	0.004556
2280.000000	0.004634
2278.000000	0.004687
2276.000000	0.004702
2274.000000	0.004693
2272.000000	0.004668
2270.000000	0.004631
2268.000000	0.004558
2266.000000	0.004425
2264.000000	0.004247
2262.000000	0.004060
2260.000000	0.003882
2258.000000	0.003713
2256.000000	0.003538
2254.000000	0.003350
2252.000000	0.003166
2250.000000	0.003009
2248.000000	0.002880
2246.000000	0.002754
2244.000000	0.002606
2242.000000	0.002436
2240.000000	0.002255
2238.000000	0.002084
2236.000000	0.001937
2234.000000	0.001816
2232.000000	0.001704
2230.000000	0.001591
2228.000000	0.001493
2226.000000	0.001429
2224.000000	0.001419
2222.000000	0.001450
2220.000000	0.001492
2218.000000	0.001525
2216.000000	0.001550
2214.000000	0.001580
2212.000000	0.001614
2210.000000	0.001644
2208.000000	0.001658
2206.000000	0.001631
2204.000000	0.001538
2202.000000	0.001394
2200.000000	0.001232
2198.000000	0.001064
2196.000000	0.000889
2194.000000	0.000706
2192.000000	0.000509
2190.000000	0.000315
2188.000000	0.000157
2186.000000	0.000051
2184.000000	-0.000017
2182.000000	-0.000075
2180.000000	-0.000126
2178.000000	-0.000172
2176.000000	-0.000227
2174.000000	-0.000278
2172.000000	-0.000309
2170.000000	-0.000344
2168.000000	-0.000396
2166.000000	-0.000434
2164.000000	-0.000449
2162.000000	-0.000446
2160.000000	-0.000413
2158.000000	-0.000348
2156.000000	-0.000278
2154.000000	-0.000206
2152.000000	-0.000124
2150.000000	-0.000041
2148.000000	0.000044
2146.000000	0.000143
2144.000000	0.000259
2142.000000	0.000380
2140.000000	0.000496
2138.000000	0.000600
2136.000000	0.000697
2134.000000	0.000786
2132.000000	0.000843
2130.000000	0.000853
2128.000000	0.000807
2126.000000	0.000692
2124.000000	0.000526
2122.000000	0.000346
2120.000000	0.000165
2118.000000	-0.000036
2116.000000	-0.000270
2114.000000	-0.000531
2112.000000	-0.000812
2110.000000	-0.001099
2108.000000	-0.001368
2106.000000	-0.001611
2104.000000	-0.001859
2102.000000	-0.002121
2100.000000	-0.002370
2098.000000	-0.002583
2096.000000	-0.002742
2094.000000	-0.002836
2092.000000	-0.002892
2090.000000	-0.002962
2088.000000	-0.003063
2086.000000	-0.003180
2084.000000	-0.003296
2082.000000	-0.003403
2080.000000	-0.003512
2078.000000	-0.003639
2076.000000	-0.003790
2074.000000	-0.003954
2072.000000	-0.004107
2070.000000	-0.004237
2068.000000	-0.004355
2066.000000	-0.004462
2064.000000	-0.004545
2062.000000	-0.004605
2060.000000	-0.004642
2058.000000	-0.004638
2056.000000	-0.004583
2054.000000	-0.004472
2052.000000	-0.004316
2050.000000	-0.004149
2048.000000	-0.004005
2046.000000	-0.003893
2044.000000	-0.003813
2042.000000	-0.003765
2040.000000	-0.003744
2038.000000	-0.003743
2036.000000	-0.003766
2034.000000	-0.003808
2032.000000	-0.003840
2030.000000	-0.003840
2028.000000	-0.003813
2026.000000	-0.003761
2024.000000	-0.003696
2022.000000	-0.003642
2020.000000	-0.003601
2018.000000	-0.003561
2016.000000	-0.003537
2014.000000	-0.003549
2012.000000	-0.003581
2010.000000	-0.003618
2008.000000	-0.003656
2006.000000	-0.003696
2004.000000	-0.003754
2002.000000	-0.003838
2000.000000	-0.003922
1998.000000	-0.003977
1996.000000	-0.004004
1994.000000	-0.004020
1992.000000	-0.004040
1990.000000	-0.004067
1988.000000	-0.004078
1986.000000	-0.004051
1984.000000	-0.004003
1982.000000	-0.003957
1980.000000	-0.003918
1978.000000	-0.003872
1976.000000	-0.003803
1974.000000	-0.003708
1972.000000	-0.003604
1970.000000	-0.003514
1968.000000	-0.003435
1966.000000	-0.003341
1964.000000	-0.003242
1962.000000	-0.003171
1960.000000	-0.003142
1958.000000	-0.003149
1956.000000	-0.003181
1954.000000	-0.003207
1952.000000	-0.003213
1950.000000	-0.003224
1948.000000	-0.003250
1946.000000	-0.003272
1944.000000	-0.003283
1942.000000	-0.003293
1940.000000	-0.003305
1938.000000	-0.003328
1936.000000	-0.003379
1934.000000	-0.003456
1932.000000	-0.003541
1930.000000	-0.003623
1928.000000	-0.003704
1926.000000	-0.003778
1924.000000	-0.003844
1922.000000	-0.003895
1920.000000	-0.003906
1918.000000	-0.003877
1916.000000	-0.003823
1914.000000	-0.003743
1912.000000	-0.003618
1910.000000	-0.003452
1908.000000	-0.003268
1906.000000	-0.003078
1904.000000	-0.002890
1902.000000	-0.002710
1900.000000	-0.002541
1898.000000	-0.002406
1896.000000	-0.002335
1894.000000	-0.002323
1892.000000	-0.002334
1890.000000	-0.002346
1888.000000	-0.002361
1886.000000	-0.002379
1884.000000	-0.002391
1882.000000	-0.002383
1880.000000	-0.002332
1878.000000	-0.002236
1876.000000	-0.002145
1874.000000	-0.002087
1872.000000	-0.002055
1870.000000	-0.002043
1868.000000	-0.002045
1866.000000	-0.002061
1864.000000	-0.002096
1862.000000	-0.002144
1860.000000	-0.002181
1858.000000	-0.002190
1856.000000	-0.002176
1854.000000	-0.002143
1852.000000	-0.002080
1850.000000	-0.001985
1848.000000	-0.001867
1846.000000	-0.001722
1844.000000	-0.001540
1842.000000	-0.001320
1840.000000	-0.001084
1838.000000	-0.000852
1836.000000	-0.000631
1834.000000	-0.000427
1832.000000	-0.000248
1830.000000	-0.000098
1828.000000	0.000019
1826.000000	0.000096
1824.000000	0.000150
1822.000000	0.000219
1820.000000	0.000311
1818.000000	0.000413
1816.000000	0.000520
1814.000000	0.000638
1812.000000	0.000781
1810.000000	0.000967
1808.000000	0.001204
1806.000000	0.001479
1804.000000	0.001766
1802.000000	0.002051
1800.000000	0.002360
1798.000000	0.002707
1796.000000	0.003046
1794.000000	0.003345
1792.000000	0.003588
1790.000000	0.003778
1788.000000	0.003962
1786.000000	0.004164
1784.000000	0.004354
1782.000000	0.004511
1780.000000	0.004659
1778.000000	0.004823
1776.000000	0.005006
1774.000000	0.005187
1772.000000	0.005330
1770.000000	0.005412
1768.000000	0.005467
1766.000000	0.005518
1764.000000	0.005550
1762.000000	0.005559
1760.000000	0.005555
1758.000000	0.005538
1756.000000	0.005517
1754.000000	0.005489
1752.000000	0.005438
1750.000000	0.005383
1748.000000	0.005359
1746.000000	0.005371
1744.000000	0.005402
1742.000000	0.005442
1740.000000	0.005498
1738.000000	0.005587
1736.000000	0.005726
1734.000000	0.005899
1732.000000	0.006066
1730.000000	0.006211
1728.000000	0.006342
1726.000000	0.006473
1724.000000	0.006610
1722.000000	0.006758
1720.000000	0.006902
1718.000000	0.007026
1716.000000	0.007146
1714.000000	0.007277
1712.000000	0.007389
1710.000000	0.007474
1708.000000	0.007540
1706.000000	0.007581
1704.000000	0.007580
1702.000000	0.007523
1700.000000	0.007373
1698.000000	0.007126
1696.000000	0.006844
1694.000000	0.006563
1692.000000	0.006298
1690.000000	0.006053
1688.000000	0.005836
1686.000000	0.005668
1684.000000	0.005602
1682.000000	0.005704
1680.000000	0.005925
1678.000000	0.006204
1676.000000	0.006503
1674.000000	0.006805
1672.000000	0.007114
1670.000000	0.007440
1668.000000	0.007779
1666.000000	0.008094
1664.000000	0.008362
1662.000000	0.008603
1660.000000	0.008864
1658.000000	0.009173
1656.000000	0.009523
1654.000000	0.009910
1652.000000	0.010351
1650.000000	0.010891
1648.000000	0.011542
1646.000000	0.012314
1644.000000	0.013209
1642.000000	0.014226
1640.000000	0.015404
1638.000000	0.016786
1636.000000	0.018388
1634.000000	0.020185
1632.000000	0.022153
1630.000000	0.024303
1628.000000	0.026629
1626.000000	0.029082
1624.000000	0.031584
1622.000000	0.034040
1620.000000	0.036327
1618.000000	0.038338
1616.000000	0.039972
1614.000000	0.041132
1612.000000	0.041781
1610.000000	0.041904
1608.000000	0.041508
1606.000000	0.040621
1604.000000	0.039300
1602.000000	0.037624
1600.000000	0.035725
1598.000000	0.033724
1596.000000	0.031680
1594.000000	0.029633
1592.000000	0.027636
1590.000000	0.025722
1588.000000	0.023930
1586.000000	0.022310
1584.000000	0.020859
1582.000000	0.019525
1580.000000	0.018287
1578.000000	0.017150
1576.000000	0.016112
1574.000000	0.015180
1572.000000	0.014322
1570.000000	0.013489
1568.000000	0.012641
1566.000000	0.011788
1564.000000	0.010959
1562.000000	0.010158
1560.000000	0.009361
1558.000000	0.008540
1556.000000	0.007732
1554.000000	0.006919
1552.000000	0.006117
1550.000000	0.005370
1548.000000	0.004685
1546.000000	0.004047
1544.000000	0.003457
1542.000000	0.002931
1540.000000	0.002468
1538.000000	0.002097
1536.000000	0.001793
1534.000000	0.001511
1532.000000	0.001231
1530.000000	0.000975
1528.000000	0.000759
1526.000000	0.000573
1524.000000	0.000393
1522.000000	0.000210
1520.000000	0.000069
1518.000000	-0.000003
1516.000000	-0.000030
1514.000000	-0.000077
1512.000000	-0.000104
1510.000000	-0.000132
1508.000000	-0.000123
1506.000000	-0.000042
1504.000000	0.000062
1502.000000	0.000140
1500.000000	0.000212
1498.000000	0.000328
1496.000000	0.000507
1494.000000	0.000735
1492.000000	0.000983
1490.000000	0.001205
1488.000000	0.001384
1486.000000	0.001559
1484.000000	0.001750
1482.000000	0.001943
1480.000000	0.002125
1478.000000	0.002311
1476.000000	0.002502
1474.000000	0.002697
1472.000000	0.002922
1470.000000	0.003209
1468.000000	0.003534
1466.000000	0.003868
1464.000000	0.004190
1462.000000	0.004482
1460.000000	0.004735
1458.000000	0.004955
1456.000000	0.005155
1454.000000	0.005329
1452.000000	0.005468
1450.000000	0.005603
1448.000000	0.005759
1446.000000	0.005942
1444.000000	0.006156
1442.000000	0.006406
1440.000000	0.006679
1438.000000	0.006955
1436.000000	0.007221
1434.000000	0.007471
1432.000000	0.007706
1430.000000	0.007921
1428.000000	0.008114
1426.000000	0.008273
1424.000000	0.008393
1422.000000	0.008502
1420.000000	0.008627
1418.000000	0.008752
1416.000000	0.008853
1414.000000	0.008945
1412.000000	0.009050
1410.000000	0.009182
1408.000000	0.009339
1406.000000	0.009492
1404.000000	0.009611
1402.000000	0.009701
1400.000000	0.009787
1398.000000	0.009872
1396.000000	0.009936
1394.000000	0.009963
1392.000000	0.009967
1390.000000	0.009971
1388.000000	0.009987
1386.000000	0.010011
1384.000000	0.010039
1382.000000	0.010079
1380.000000	0.010134
1378.000000	0.010205
1376.000000	0.010283
1374.000000	0.010351
1372.000000	0.010416
1370.000000	0.010491
1368.000000	0.010582
1366.000000	0.010687
1364.000000	0.010803
1362.000000	0.010909
1360.000000	0.010993
1358.000000	0.011076
1356.000000	0.011174
1354.000000	0.011282
1352.000000	0.011388
1350.000000	0.011485
1348.000000	0.011565
1346.000000	0.011637
1344.000000	0.011737
1342.000000	0.011882
1340.000000	0.012056
1338.000000	0.012250
1336.000000	0.012473
1334.000000	0.012732
1332.000000	0.013028
1330.000000	0.013364
1328.000000	0.013737
1326.000000	0.014121
1324.000000	0.014487
1322.000000	0.014824
1320.000000	0.015118
1318.000000	0.015361
1316.000000	0.015559
1314.000000	0.015722
1312.000000	0.015851
1310.000000	0.015949
1308.000000	0.016039
1306.000000	0.016148
1304.000000	0.016294
1302.000000	0.016487
1300.000000	0.016711
1298.000000	0.016941
1296.000000	0.017168
1294.000000	0.017399
1292.000000	0.017647
1290.000000	0.017916
1288.000000	0.018195
1286.000000	0.018470
1284.000000	0.018750
1282.000000	0.019060
1280.000000	0.019409
1278.000000	0.019802
1276.000000	0.020228
1274.000000	0.020665
1272.000000	0.021114
1270.000000	0.021589
1268.000000	0.022091
1266.000000	0.022620
1264.000000	0.023182
1262.000000	0.023770
1260.000000	0.024379
1258.000000	0.025026
1256.000000	0.025729
1254.000000	0.026491
1252.000000	0.027336
1250.000000	0.028290
1248.000000	0.029370
1246.000000	0.030607
1244.000000	0.032037
1242.000000	0.033677
1240.000000	0.035542
1238.000000	0.037664
1236.000000	0.040054
1234.000000	0.042692
1232.000000	0.045547
1230.000000	0.048575
1228.000000	0.051729
1226.000000	0.054975
1224.000000	0.058273
1222.000000	0.061559
1220.000000	0.064748
1218.000000	0.067773
1216.000000	0.070609
1214.000000	0.073248
1212.000000	0.075672
1210.000000	0.077861
1208.000000	0.079792
1206.000000	0.081470
1204.000000	0.082934
1202.000000	0.084216
1200.000000	0.085333
1198.000000	0.086308
1196.000000	0.087166
1194.000000	0.087923
1192.000000	0.088598
1190.000000	0.089209
1188.000000	0.089772
1186.000000	0.090288
1184.000000	0.090757
1182.000000	0.091180
1180.000000	0.091565
1178.000000	0.091932
1176.000000	0.092311
1174.000000	0.092720
1172.000000	0.093162
1170.000000	0.093636
1168.000000	0.094142
1166.000000	0.094687
1164.000000	0.095271
1162.000000	0.095883
1160.000000	0.096488
1158.000000	0.097053
1156.000000	0.097564
1154.000000	0.098021
1152.000000	0.098442
1150.000000	0.098852
1148.000000	0.099267
1146.000000	0.099702
1144.000000	0.100176
1142.000000	0.100689
1140.000000	0.101225
1138.000000	0.101796
1136.000000	0.102418
1134.000000	0.103073
1132.000000	0.103728
1130.000000	0.104349
1128.000000	0.104919
1126.000000	0.105467
1124.000000	0.106018
1122.000000	0.106555
1120.000000	0.107050
1118.000000	0.107501
1116.000000	0.107923
1114.000000	0.108331
1112.000000	0.108734
1110.000000	0.109134
1108.000000	0.109535
1106.000000	0.109954
1104.000000	0.110398
1102.000000	0.110867
1100.000000	0.111353
1098.000000	0.111824
1096.000000	0.112227
1094.000000	0.112507
1092.000000	0.112643
1090.000000	0.112641
1088.000000	0.112525
1086.000000	0.112336
1084.000000	0.112129
1082.000000	0.111976
1080.000000	0.111974
1078.000000	0.112242
1076.000000	0.112858
1074.000000	0.113814
1072.000000	0.115042
1070.000000	0.116455
1068.000000	0.117942
1066.000000	0.119403
1064.000000	0.120734
1062.000000	0.121798
1060.000000	0.122488
1058.000000	0.122775
1056.000000	0.122649
1054.000000	0.122115
1052.000000	0.121226
1050.000000	0.120035
1048.000000	0.118590
1046.000000	0.116965
1044.000000	0.115245
1042.000000	0.113479
1040.000000	0.111698
1038.000000	0.109949
1036.000000	0.108269
1034.000000	0.106671
1032.000000	0.105168
1030.000000	0.103749
1028.000000	0.102403
1026.000000	0.101143
1024.000000	0.099975
1022.000000	0.098891
1020.000000	0.097894
1018.000000	0.096968
1016.000000	0.096089
1014.000000	0.095249
1012.000000	0.094430
1010.000000	0.093573
1008.000000	0.092628
1006.000000	0.091583
1004.000000	0.090434
1002.000000	0.089183
1000.000000	0.087850
998.000000	0.086452
996.000000	0.085000
994.000000	0.083515
992.000000	0.082015
990.000000	0.080514
988.000000	0.079039
986.000000	0.077616
984.000000	0.076262
982.000000	0.074971
980.000000	0.073736
978.000000	0.072561
976.000000	0.071456
974.000000	0.070421
972.000000	0.069424
970.000000	0.068417
968.000000	0.067363
966.000000	0.066253
964.000000	0.065098
962.000000	0.063916
960.000000	0.062726
958.000000	0.061546
956.000000	0.060385
954.000000	0.059270
952.000000	0.058236
950.000000	0.057305
948.000000	0.056476
946.000000	0.055732
944.000000	0.055039
942.000000	0.054387
940.000000	0.053796
938.000000	0.053282
936.000000	0.052833
934.000000	0.052450
932.000000	0.052130
930.000000	0.051870
928.000000	0.051676
926.000000	0.051537
924.000000	0.051424
922.000000	0.051315
920.000000	0.051201
918.000000	0.051050
916.000000	0.050822
914.000000	0.050492
912.000000	0.050071
910.000000	0.049583
908.000000	0.049040
906.000000	0.048445
904.000000	0.047781
902.000000	0.047033
900.000000	0.046252
898.000000	0.045500
896.000000	0.044773
894.000000	0.044020
892.000000	0.043233
890.000000	0.042462
888.000000	0.041750
886.000000	0.041105
884.000000	0.040496
882.000000	0.039897
880.000000	0.039353
878.000000	0.038936
876.000000	0.038668
874.000000	0.038520
872.000000	0.038426
870.000000	0.038336
868.000000	0.038265
866.000000	0.038253
864.000000	0.038291
862.000000	0.038287
860.000000	0.038151
858.000000	0.037859
856.000000	0.037440
854.000000	0.036956
852.000000	0.036457
850.000000	0.035917
848.000000	0.035269
846.000000	0.034497
844.000000	0.033663
842.000000	0.032829
840.000000	0.032032
838.000000	0.031277
836.000000	0.030545
834.000000	0.029826
832.000000	0.029146
830.000000	0.028559
828.000000	0.028111
826.000000	0.027807
824.000000	0.027592
822.000000	0.027392
820.000000	0.027159
818.000000	0.026876
816.000000	0.026553
814.000000	0.026197
812.000000	0.025767
810.000000	0.025207
808.000000	0.024502
806.000000	0.023684
804.000000	0.022779
802.000000	0.021829
800.000000	0.020877
798.000000	0.019914
796.000000	0.018931
794.000000	0.017967
792.000000	0.017092
790.000000	0.016346
788.000000	0.015743
786.000000	0.015280
784.000000	0.014893
782.000000	0.014517
780.000000	0.014152
778.000000	0.013789
776.000000	0.013376
774.000000	0.012837
772.000000	0.012123
770.000000	0.011260
768.000000	0.010307
766.000000	0.009309
764.000000	0.008291
762.000000	0.007253
760.000000	0.006196
758.000000	0.005183
756.000000	0.004295
754.000000	0.003522
752.000000	0.002812
750.000000	0.002176
748.000000	0.001604
746.000000	0.001040
744.000000	0.000490
742.000000	0.000039
740.000000	-0.000260
738.000000	-0.000397
736.000000	-0.000372
734.000000	-0.000205
732.000000	0.000314
730.000000	0.000916
728.000000	0.001890
726.000000	0.003195
724.000000	0.004694
722.000000	0.006265
720.000000	0.007954
718.000000	0.010000
716.000000	0.012686
714.000000	0.016179
712.000000	0.020553
710.000000	0.025975
708.000000	0.032605
706.000000	0.040526
704.000000	0.049706
702.000000	0.059814
700.000000	0.070378
