PE IR       SUBTECH     SPECTRUM    ASCII       PEDS        4.00        
   -1
LS_4_unfl.asc
14/09/24
10:00:58.00
14/09/26
10:31:09.00
nystrom.12
Co-added spectrum 3 at 1520, -2355 (Image Marker 1)
700.000000
#HDR
-1
-1
#GR
cm-1
A
1.0
0.0
4000.000000
-2.000000
1651
8
0.095407
-0.054870
#DATA
4000.000000	-0.008174
3998.000000	-0.008410
3996.000000	-0.008617
3994.000000	-0.008779
3992.000000	-0.008919
3990.000000	-0.009071
3988.000000	-0.009228
3986.000000	-0.009356
3984.000000	-0.009433
3982.000000	-0.009446
3980.000000	-0.009420
3978.000000	-0.009396
3976.000000	-0.009396
3974.000000	-0.009420
3972.000000	-0.009459
3970.000000	-0.009521
3968.000000	-0.009614
3966.000000	-0.009725
3964.000000	-0.009824
3962.000000	-0.009896
3960.000000	-0.009965
3958.000000	-0.010048
3956.000000	-0.010101
3954.000000	-0.010100
3952.000000	-0.010074
3950.000000	-0.010035
3948.000000	-0.009995
3946.000000	-0.009997
3944.000000	-0.010028
3942.000000	-0.010044
3940.000000	-0.010068
3938.000000	-0.010127
3936.000000	-0.010176
3934.000000	-0.010189
3932.000000	-0.010178
3930.000000	-0.010128
3928.000000	-0.010059
3926.000000	-0.010024
3924.000000	-0.010020
3922.000000	-0.010039
3920.000000	-0.010133
3918.000000	-0.010319
3916.000000	-0.010545
3914.000000	-0.010790
3912.000000	-0.011030
3910.000000	-0.011216
3908.000000	-0.011343
3906.000000	-0.011433
3904.000000	-0.011470
3902.000000	-0.011413
3900.000000	-0.011304
3898.000000	-0.011218
3896.000000	-0.011140
3894.000000	-0.011052
3892.000000	-0.010954
3890.000000	-0.010815
3888.000000	-0.010642
3886.000000	-0.010463
3884.000000	-0.010260
3882.000000	-0.010026
3880.000000	-0.009784
3878.000000	-0.009560
3876.000000	-0.009369
3874.000000	-0.009233
3872.000000	-0.009184
3870.000000	-0.009195
3868.000000	-0.009217
3866.000000	-0.009270
3864.000000	-0.009367
3862.000000	-0.009512
3860.000000	-0.009702
3858.000000	-0.009876
3856.000000	-0.009960
3854.000000	-0.009914
3852.000000	-0.009815
3850.000000	-0.009841
3848.000000	-0.009949
3846.000000	-0.010062
3844.000000	-0.010152
3842.000000	-0.010229
3840.000000	-0.010314
3838.000000	-0.010460
3836.000000	-0.010741
3834.000000	-0.011078
3832.000000	-0.011305
3830.000000	-0.011352
3828.000000	-0.011263
3826.000000	-0.011116
3824.000000	-0.010974
3822.000000	-0.010837
3820.000000	-0.010644
3818.000000	-0.010403
3816.000000	-0.010172
3814.000000	-0.010050
3812.000000	-0.010103
3810.000000	-0.010256
3808.000000	-0.010412
3806.000000	-0.010552
3804.000000	-0.010706
3802.000000	-0.010842
3800.000000	-0.010939
3798.000000	-0.011044
3796.000000	-0.011126
3794.000000	-0.011196
3792.000000	-0.011294
3790.000000	-0.011399
3788.000000	-0.011502
3786.000000	-0.011630
3784.000000	-0.011773
3782.000000	-0.011882
3780.000000	-0.011934
3778.000000	-0.011926
3776.000000	-0.011897
3774.000000	-0.011884
3772.000000	-0.011874
3770.000000	-0.011810
3768.000000	-0.011691
3766.000000	-0.011587
3764.000000	-0.011505
3762.000000	-0.011413
3760.000000	-0.011259
3758.000000	-0.010999
3756.000000	-0.010656
3754.000000	-0.010305
3752.000000	-0.010003
3750.000000	-0.009733
3748.000000	-0.009473
3746.000000	-0.009233
3744.000000	-0.009050
3742.000000	-0.008991
3740.000000	-0.009065
3738.000000	-0.009208
3736.000000	-0.009328
3734.000000	-0.009351
3732.000000	-0.009291
3730.000000	-0.009278
3728.000000	-0.009360
3726.000000	-0.009458
3724.000000	-0.009503
3722.000000	-0.009507
3720.000000	-0.009503
3718.000000	-0.009507
3716.000000	-0.009498
3714.000000	-0.009399
3712.000000	-0.009161
3710.000000	-0.008824
3708.000000	-0.008467
3706.000000	-0.008098
3704.000000	-0.007668
3702.000000	-0.007160
3700.000000	-0.006631
3698.000000	-0.006136
3696.000000	-0.005661
3694.000000	-0.005151
3692.000000	-0.004581
3690.000000	-0.003963
3688.000000	-0.003349
3686.000000	-0.002813
3684.000000	-0.002308
3682.000000	-0.001749
3680.000000	-0.001122
3678.000000	-0.000456
3676.000000	0.000210
3674.000000	0.000871
3672.000000	0.001563
3670.000000	0.002354
3668.000000	0.003197
3666.000000	0.003952
3664.000000	0.004630
3662.000000	0.005326
3660.000000	0.006100
3658.000000	0.006976
3656.000000	0.007953
3654.000000	0.008963
3652.000000	0.010021
3650.000000	0.011287
3648.000000	0.012839
3646.000000	0.014468
3644.000000	0.016070
3642.000000	0.017664
3640.000000	0.019261
3638.000000	0.020862
3636.000000	0.022461
3634.000000	0.023987
3632.000000	0.025357
3630.000000	0.026604
3628.000000	0.027829
3626.000000	0.029038
3624.000000	0.030175
3622.000000	0.031240
3620.000000	0.032253
3618.000000	0.033209
3616.000000	0.034114
3614.000000	0.034984
3612.000000	0.035781
3610.000000	0.036465
3608.000000	0.037076
3606.000000	0.037663
3604.000000	0.038217
3602.000000	0.038736
3600.000000	0.039255
3598.000000	0.039781
3596.000000	0.040306
3594.000000	0.040879
3592.000000	0.041515
3590.000000	0.042153
3588.000000	0.042781
3586.000000	0.043433
3584.000000	0.044087
3582.000000	0.044717
3580.000000	0.045363
3578.000000	0.046022
3576.000000	0.046647
3574.000000	0.047254
3572.000000	0.047862
3570.000000	0.048444
3568.000000	0.049035
3566.000000	0.049682
3564.000000	0.050279
3562.000000	0.050758
3560.000000	0.051158
3558.000000	0.051523
3556.000000	0.051868
3554.000000	0.052183
3552.000000	0.052448
3550.000000	0.052667
3548.000000	0.052905
3546.000000	0.053230
3544.000000	0.053664
3542.000000	0.054188
3540.000000	0.054779
3538.000000	0.055442
3536.000000	0.056185
3534.000000	0.056962
3532.000000	0.057686
3530.000000	0.058326
3528.000000	0.058915
3526.000000	0.059460
3524.000000	0.059946
3522.000000	0.060355
3520.000000	0.060634
3518.000000	0.060806
3516.000000	0.060997
3514.000000	0.061282
3512.000000	0.061626
3510.000000	0.061950
3508.000000	0.062223
3506.000000	0.062461
3504.000000	0.062719
3502.000000	0.063028
3500.000000	0.063342
3498.000000	0.063585
3496.000000	0.063727
3494.000000	0.063824
3492.000000	0.063980
3490.000000	0.064200
3488.000000	0.064395
3486.000000	0.064545
3484.000000	0.064690
3482.000000	0.064832
3480.000000	0.064947
3478.000000	0.065003
3476.000000	0.064961
3474.000000	0.064867
3472.000000	0.064827
3470.000000	0.064846
3468.000000	0.064844
3466.000000	0.064780
3464.000000	0.064683
3462.000000	0.064611
3460.000000	0.064575
3458.000000	0.064502
3456.000000	0.064299
3454.000000	0.063934
3452.000000	0.063453
3450.000000	0.062903
3448.000000	0.062284
3446.000000	0.061583
3444.000000	0.060805
3442.000000	0.059983
3440.000000	0.059131
3438.000000	0.058245
3436.000000	0.057344
3434.000000	0.056473
3432.000000	0.055658
3430.000000	0.054896
3428.000000	0.054169
3426.000000	0.053454
3424.000000	0.052735
3422.000000	0.052053
3420.000000	0.051448
3418.000000	0.050879
3416.000000	0.050274
3414.000000	0.049593
3412.000000	0.048852
3410.000000	0.048113
3408.000000	0.047425
3406.000000	0.046787
3404.000000	0.046159
3402.000000	0.045520
3400.000000	0.044904
3398.000000	0.044385
3396.000000	0.043987
3394.000000	0.043644
3392.000000	0.043299
3390.000000	0.042927
3388.000000	0.042518
3386.000000	0.042090
3384.000000	0.041662
3382.000000	0.041215
3380.000000	0.040733
3378.000000	0.040255
3376.000000	0.039820
3374.000000	0.039438
3372.000000	0.039106
3370.000000	0.038814
3368.000000	0.038553
3366.000000	0.038339
3364.000000	0.038180
3362.000000	0.038034
3360.000000	0.037863
3358.000000	0.037663
3356.000000	0.037444
3354.000000	0.037222
3352.000000	0.036991
3350.000000	0.036704
3348.000000	0.036336
3346.000000	0.035924
3344.000000	0.035513
3342.000000	0.035108
3340.000000	0.034717
3338.000000	0.034351
3336.000000	0.034004
3334.000000	0.033671
3332.000000	0.033374
3330.000000	0.033111
3328.000000	0.032846
3326.000000	0.032551
3324.000000	0.032232
3322.000000	0.031902
3320.000000	0.031566
3318.000000	0.031245
3316.000000	0.030966
3314.000000	0.030721
3312.000000	0.030484
3310.000000	0.030258
3308.000000	0.030042
3306.000000	0.029795
3304.000000	0.029503
3302.000000	0.029197
3300.000000	0.028877
3298.000000	0.028531
3296.000000	0.028163
3294.000000	0.027800
3292.000000	0.027483
3290.000000	0.027250
3288.000000	0.027103
3286.000000	0.027003
3284.000000	0.026924
3282.000000	0.026869
3280.000000	0.026843
3278.000000	0.026835
3276.000000	0.026795
3274.000000	0.026679
3272.000000	0.026482
3270.000000	0.026209
3268.000000	0.025874
3266.000000	0.025482
3264.000000	0.025028
3262.000000	0.024527
3260.000000	0.024035
3258.000000	0.023577
3256.000000	0.023154
3254.000000	0.022773
3252.000000	0.022433
3250.000000	0.022122
3248.000000	0.021839
3246.000000	0.021571
3244.000000	0.021298
3242.000000	0.021009
3240.000000	0.020715
3238.000000	0.020409
3236.000000	0.020094
3234.000000	0.019798
3232.000000	0.019527
3230.000000	0.019282
3228.000000	0.019077
3226.000000	0.018917
3224.000000	0.018808
3222.000000	0.018749
3220.000000	0.018737
3218.000000	0.018747
3216.000000	0.018750
3214.000000	0.018729
3212.000000	0.018658
3210.000000	0.018517
3208.000000	0.018302
3206.000000	0.018033
3204.000000	0.017731
3202.000000	0.017411
3200.000000	0.017083
3198.000000	0.016745
3196.000000	0.016405
3194.000000	0.016092
3192.000000	0.015819
3190.000000	0.015587
3188.000000	0.015380
3186.000000	0.015150
3184.000000	0.014870
3182.000000	0.014544
3180.000000	0.014181
3178.000000	0.013803
3176.000000	0.013416
3174.000000	0.012997
3172.000000	0.012528
3170.000000	0.012047
3168.000000	0.011631
3166.000000	0.011330
3164.000000	0.011135
3162.000000	0.011019
3160.000000	0.010970
3158.000000	0.010971
3156.000000	0.010992
3154.000000	0.010994
3152.000000	0.010940
3150.000000	0.010823
3148.000000	0.010661
3146.000000	0.010443
3144.000000	0.010150
3142.000000	0.009818
3140.000000	0.009495
3138.000000	0.009215
3136.000000	0.008996
3134.000000	0.008817
3132.000000	0.008634
3130.000000	0.008441
3128.000000	0.008267
3126.000000	0.008112
3124.000000	0.007940
3122.000000	0.007767
3120.000000	0.007630
3118.000000	0.007535
3116.000000	0.007475
3114.000000	0.007433
3112.000000	0.007397
3110.000000	0.007371
3108.000000	0.007362
3106.000000	0.007356
3104.000000	0.007326
3102.000000	0.007256
3100.000000	0.007143
3098.000000	0.007008
3096.000000	0.006886
3094.000000	0.006774
3092.000000	0.006638
3090.000000	0.006462
3088.000000	0.006240
3086.000000	0.005971
3084.000000	0.005668
3082.000000	0.005353
3080.000000	0.005018
3078.000000	0.004668
3076.000000	0.004346
3074.000000	0.004084
3072.000000	0.003886
3070.000000	0.003753
3068.000000	0.003694
3066.000000	0.003680
3064.000000	0.003680
3062.000000	0.003698
3060.000000	0.003726
3058.000000	0.003732
3056.000000	0.003687
3054.000000	0.003604
3052.000000	0.003516
3050.000000	0.003437
3048.000000	0.003367
3046.000000	0.003291
3044.000000	0.003189
3042.000000	0.003096
3040.000000	0.003058
3038.000000	0.003073
3036.000000	0.003090
3034.000000	0.003065
3032.000000	0.003010
3030.000000	0.002980
3028.000000	0.002991
3026.000000	0.002989
3024.000000	0.002925
3022.000000	0.002795
3020.000000	0.002626
3018.000000	0.002458
3016.000000	0.002312
3014.000000	0.002162
3012.000000	0.001985
3010.000000	0.001807
3008.000000	0.001688
3006.000000	0.001646
3004.000000	0.001653
3002.000000	0.001686
3000.000000	0.001739
2998.000000	0.001800
2996.000000	0.001870
2994.000000	0.001950
2992.000000	0.002005
2990.000000	0.002005
2988.000000	0.001970
2986.000000	0.001915
2984.000000	0.001822
2982.000000	0.001675
2980.000000	0.001481
2978.000000	0.001252
2976.000000	0.001018
2974.000000	0.000814
2972.000000	0.000625
2970.000000	0.000426
2968.000000	0.000251
2966.000000	0.000146
2964.000000	0.000130
2962.000000	0.000213
2960.000000	0.000385
2958.000000	0.000600
2956.000000	0.000851
2954.000000	0.001156
2952.000000	0.001480
2950.000000	0.001777
2948.000000	0.002021
2946.000000	0.002178
2944.000000	0.002238
2942.000000	0.002228
2940.000000	0.002165
2938.000000	0.002057
2936.000000	0.001930
2934.000000	0.001820
2932.000000	0.001748
2930.000000	0.001724
2928.000000	0.001741
2926.000000	0.001785
2924.000000	0.001855
2922.000000	0.001940
2920.000000	0.002017
2918.000000	0.002071
2916.000000	0.002100
2914.000000	0.002106
2912.000000	0.002114
2910.000000	0.002162
2908.000000	0.002250
2906.000000	0.002342
2904.000000	0.002429
2902.000000	0.002527
2900.000000	0.002609
2898.000000	0.002620
2896.000000	0.002538
2894.000000	0.002366
2892.000000	0.002144
2890.000000	0.001929
2888.000000	0.001728
2886.000000	0.001522
2884.000000	0.001328
2882.000000	0.001196
2880.000000	0.001168
2878.000000	0.001260
2876.000000	0.001454
2874.000000	0.001689
2872.000000	0.001933
2870.000000	0.002208
2868.000000	0.002530
2866.000000	0.002889
2864.000000	0.003253
2862.000000	0.003568
2860.000000	0.003805
2858.000000	0.003977
2856.000000	0.004098
2854.000000	0.004163
2852.000000	0.004156
2850.000000	0.004072
2848.000000	0.003934
2846.000000	0.003787
2844.000000	0.003669
2842.000000	0.003566
2840.000000	0.003462
2838.000000	0.003376
2836.000000	0.003317
2834.000000	0.003276
2832.000000	0.003257
2830.000000	0.003254
2828.000000	0.003258
2826.000000	0.003274
2824.000000	0.003296
2822.000000	0.003303
2820.000000	0.003310
2818.000000	0.003334
2816.000000	0.003350
2814.000000	0.003341
2812.000000	0.003301
2810.000000	0.003216
2808.000000	0.003123
2806.000000	0.003061
2804.000000	0.003011
2802.000000	0.002957
2800.000000	0.002916
2798.000000	0.002888
2796.000000	0.002855
2794.000000	0.002826
2792.000000	0.002825
2790.000000	0.002857
2788.000000	0.002910
2786.000000	0.002961
2784.000000	0.002991
2782.000000	0.003020
2780.000000	0.003087
2778.000000	0.003199
2776.000000	0.003334
2774.000000	0.003458
2772.000000	0.003550
2770.000000	0.003621
2768.000000	0.003707
2766.000000	0.003824
2764.000000	0.003960
2762.000000	0.004106
2760.000000	0.004246
2758.000000	0.004371
2756.000000	0.004488
2754.000000	0.004591
2752.000000	0.004667
2750.000000	0.004696
2748.000000	0.004656
2746.000000	0.004541
2744.000000	0.004366
2742.000000	0.004157
2740.000000	0.003931
2738.000000	0.003704
2736.000000	0.003484
2734.000000	0.003274
2732.000000	0.003095
2730.000000	0.002964
2728.000000	0.002882
2726.000000	0.002826
2724.000000	0.002779
2722.000000	0.002741
2720.000000	0.002725
2718.000000	0.002768
2716.000000	0.002884
2714.000000	0.003038
2712.000000	0.003173
2710.000000	0.003258
2708.000000	0.003325
2706.000000	0.003412
2704.000000	0.003499
2702.000000	0.003538
2700.000000	0.003490
2698.000000	0.003363
2696.000000	0.003226
2694.000000	0.003158
2692.000000	0.003166
2690.000000	0.003202
2688.000000	0.003238
2686.000000	0.003267
2684.000000	0.003299
2682.000000	0.003353
2680.000000	0.003425
2678.000000	0.003484
2676.000000	0.003505
2674.000000	0.003491
2672.000000	0.003464
2670.000000	0.003462
2668.000000	0.003515
2666.000000	0.003612
2664.000000	0.003725
2662.000000	0.003839
2660.000000	0.003953
2658.000000	0.004056
2656.000000	0.004141
2654.000000	0.004222
2652.000000	0.004311
2650.000000	0.004405
2648.000000	0.004484
2646.000000	0.004555
2644.000000	0.004638
2642.000000	0.004739
2640.000000	0.004866
2638.000000	0.005005
2636.000000	0.005111
2634.000000	0.005158
2632.000000	0.005170
2630.000000	0.005171
2628.000000	0.005169
2626.000000	0.005178
2624.000000	0.005194
2622.000000	0.005207
2620.000000	0.005243
2618.000000	0.005340
2616.000000	0.005500
2614.000000	0.005701
2612.000000	0.005915
2610.000000	0.006114
2608.000000	0.006283
2606.000000	0.006427
2604.000000	0.006553
2602.000000	0.006650
2600.000000	0.006703
2598.000000	0.006736
2596.000000	0.006776
2594.000000	0.006823
2592.000000	0.006881
2590.000000	0.006960
2588.000000	0.007060
2586.000000	0.007174
2584.000000	0.007301
2582.000000	0.007425
2580.000000	0.007531
2578.000000	0.007636
2576.000000	0.007755
2574.000000	0.007881
2572.000000	0.007997
2570.000000	0.008098
2568.000000	0.008198
2566.000000	0.008331
2564.000000	0.008502
2562.000000	0.008676
2560.000000	0.008832
2558.000000	0.008972
2556.000000	0.009096
2554.000000	0.009218
2552.000000	0.009348
2550.000000	0.009464
2548.000000	0.009536
2546.000000	0.009564
2544.000000	0.009561
2542.000000	0.009548
2540.000000	0.009562
2538.000000	0.009620
2536.000000	0.009698
2534.000000	0.009761
2532.000000	0.009822
2530.000000	0.009926
2528.000000	0.010084
2526.000000	0.010267
2524.000000	0.010440
2522.000000	0.010565
2520.000000	0.010618
2518.000000	0.010620
2516.000000	0.010616
2514.000000	0.010609
2512.000000	0.010595
2510.000000	0.010592
2508.000000	0.010618
2506.000000	0.010684
2504.000000	0.010808
2502.000000	0.010977
2500.000000	0.011152
2498.000000	0.011307
2496.000000	0.011425
2494.000000	0.011491
2492.000000	0.011502
2490.000000	0.011479
2488.000000	0.011452
2486.000000	0.011445
2484.000000	0.011481
2482.000000	0.011570
2480.000000	0.011711
2478.000000	0.011904
2476.000000	0.012159
2474.000000	0.012460
2472.000000	0.012753
2470.000000	0.013006
2468.000000	0.013234
2466.000000	0.013453
2464.000000	0.013653
2462.000000	0.013823
2460.000000	0.013954
2458.000000	0.014030
2456.000000	0.014068
2454.000000	0.014095
2452.000000	0.014115
2450.000000	0.014110
2448.000000	0.014073
2446.000000	0.014020
2444.000000	0.013953
2442.000000	0.013872
2440.000000	0.013797
2438.000000	0.013733
2436.000000	0.013645
2434.000000	0.013526
2432.000000	0.013396
2430.000000	0.013268
2428.000000	0.013161
2426.000000	0.013097
2424.000000	0.013083
2422.000000	0.013115
2420.000000	0.013200
2418.000000	0.013325
2416.000000	0.013468
2414.000000	0.013626
2412.000000	0.013788
2410.000000	0.013948
2408.000000	0.014092
2406.000000	0.014186
2404.000000	0.014221
2402.000000	0.014229
2400.000000	0.014233
2398.000000	0.014219
2396.000000	0.014176
2394.000000	0.014112
2392.000000	0.014022
2390.000000	0.013899
2388.000000	0.013734
2386.000000	0.013514
2384.000000	0.013262
2382.000000	0.013030
2380.000000	0.012854
2378.000000	0.012739
2376.000000	0.012653
2374.000000	0.012574
2372.000000	0.012541
2370.000000	0.012607
2368.000000	0.012789
2366.000000	0.013002
2364.000000	0.013147
2362.000000	0.013190
2360.000000	0.013157
2358.000000	0.013150
2356.000000	0.013192
2354.000000	0.013200
2352.000000	0.013074
2350.000000	0.012809
2348.000000	0.012495
2346.000000	0.012224
2344.000000	0.011993
2342.000000	0.011736
2340.000000	0.011433
2338.000000	0.011140
2336.000000	0.010978
2334.000000	0.011015
2332.000000	0.011208
2330.000000	0.011443
2328.000000	0.011634
2326.000000	0.011804
2324.000000	0.011989
2322.000000	0.012157
2320.000000	0.012242
2318.000000	0.012217
2316.000000	0.012110
2314.000000	0.011973
2312.000000	0.011839
2310.000000	0.011701
2308.000000	0.011553
2306.000000	0.011412
2304.000000	0.011295
2302.000000	0.011199
2300.000000	0.011094
2298.000000	0.010950
2296.000000	0.010791
2294.000000	0.010667
2292.000000	0.010588
2290.000000	0.010537
2288.000000	0.010495
2286.000000	0.010450
2284.000000	0.010427
2282.000000	0.010460
2280.000000	0.010527
2278.000000	0.010569
2276.000000	0.010572
2274.000000	0.010551
2272.000000	0.010515
2270.000000	0.010466
2268.000000	0.010381
2266.000000	0.010236
2264.000000	0.010046
2262.000000	0.009846
2260.000000	0.009656
2258.000000	0.009474
2256.000000	0.009286
2254.000000	0.009086
2252.000000	0.008889
2250.000000	0.008719
2248.000000	0.008577
2246.000000	0.008438
2244.000000	0.008276
2242.000000	0.008093
2240.000000	0.007899
2238.000000	0.007714
2236.000000	0.007554
2234.000000	0.007419
2232.000000	0.007293
2230.000000	0.007166
2228.000000	0.007054
2226.000000	0.006976
2224.000000	0.006951
2222.000000	0.006968
2220.000000	0.006995
2218.000000	0.007014
2216.000000	0.007024
2214.000000	0.007040
2212.000000	0.007059
2210.000000	0.007073
2208.000000	0.007072
2206.000000	0.007030
2204.000000	0.006922
2202.000000	0.006762
2200.000000	0.006584
2198.000000	0.006400
2196.000000	0.006209
2194.000000	0.006011
2192.000000	0.005798
2190.000000	0.005587
2188.000000	0.005413
2186.000000	0.005291
2184.000000	0.005206
2182.000000	0.005132
2180.000000	0.005064
2178.000000	0.005001
2176.000000	0.004929
2174.000000	0.004861
2172.000000	0.004813
2170.000000	0.004761
2168.000000	0.004692
2166.000000	0.004636
2164.000000	0.004603
2162.000000	0.004589
2160.000000	0.004604
2158.000000	0.004651
2156.000000	0.004703
2154.000000	0.004757
2152.000000	0.004821
2150.000000	0.004885
2148.000000	0.004952
2146.000000	0.005032
2144.000000	0.005129
2142.000000	0.005231
2140.000000	0.005329
2138.000000	0.005414
2136.000000	0.005492
2134.000000	0.005561
2132.000000	0.005599
2130.000000	0.005590
2128.000000	0.005524
2126.000000	0.005390
2124.000000	0.005204
2122.000000	0.005004
2120.000000	0.004803
2118.000000	0.004582
2116.000000	0.004327
2114.000000	0.004046
2112.000000	0.003744
2110.000000	0.003436
2108.000000	0.003147
2106.000000	0.002883
2104.000000	0.002614
2102.000000	0.002331
2100.000000	0.002061
2098.000000	0.001826
2096.000000	0.001646
2094.000000	0.001531
2092.000000	0.001452
2090.000000	0.001361
2088.000000	0.001238
2086.000000	0.001099
2084.000000	0.000961
2082.000000	0.000832
2080.000000	0.000700
2078.000000	0.000551
2076.000000	0.000378
2074.000000	0.000191
2072.000000	0.000015
2070.000000	-0.000138
2068.000000	-0.000279
2066.000000	-0.000409
2064.000000	-0.000516
2062.000000	-0.000599
2060.000000	-0.000659
2058.000000	-0.000679
2056.000000	-0.000647
2054.000000	-0.000560
2052.000000	-0.000428
2050.000000	-0.000286
2048.000000	-0.000166
2046.000000	-0.000078
2044.000000	-0.000023
2042.000000	0.000001
2040.000000	-0.000002
2038.000000	-0.000027
2036.000000	-0.000075
2034.000000	-0.000142
2032.000000	-0.000199
2030.000000	-0.000224
2028.000000	-0.000222
2026.000000	-0.000196
2024.000000	-0.000157
2022.000000	-0.000128
2020.000000	-0.000114
2018.000000	-0.000099
2016.000000	-0.000102
2014.000000	-0.000140
2012.000000	-0.000198
2010.000000	-0.000262
2008.000000	-0.000326
2006.000000	-0.000392
2004.000000	-0.000478
2002.000000	-0.000589
2000.000000	-0.000699
1998.000000	-0.000782
1996.000000	-0.000837
1994.000000	-0.000879
1992.000000	-0.000927
1990.000000	-0.000982
1988.000000	-0.001020
1986.000000	-0.001021
1984.000000	-0.001001
1982.000000	-0.000984
1980.000000	-0.000973
1978.000000	-0.000955
1976.000000	-0.000915
1974.000000	-0.000848
1972.000000	-0.000773
1970.000000	-0.000712
1968.000000	-0.000662
1966.000000	-0.000598
1964.000000	-0.000528
1962.000000	-0.000487
1960.000000	-0.000487
1958.000000	-0.000524
1956.000000	-0.000585
1954.000000	-0.000642
1952.000000	-0.000677
1950.000000	-0.000718
1948.000000	-0.000775
1946.000000	-0.000827
1944.000000	-0.000869
1942.000000	-0.000909
1940.000000	-0.000952
1938.000000	-0.001006
1936.000000	-0.001088
1934.000000	-0.001196
1932.000000	-0.001312
1930.000000	-0.001426
1928.000000	-0.001538
1926.000000	-0.001644
1924.000000	-0.001742
1922.000000	-0.001824
1920.000000	-0.001868
1918.000000	-0.001871
1916.000000	-0.001849
1914.000000	-0.001801
1912.000000	-0.001709
1910.000000	-0.001576
1908.000000	-0.001424
1906.000000	-0.001267
1904.000000	-0.001113
1902.000000	-0.000966
1900.000000	-0.000830
1898.000000	-0.000728
1896.000000	-0.000691
1894.000000	-0.000713
1892.000000	-0.000757
1890.000000	-0.000803
1888.000000	-0.000852
1886.000000	-0.000905
1884.000000	-0.000950
1882.000000	-0.000977
1880.000000	-0.000960
1878.000000	-0.000899
1876.000000	-0.000843
1874.000000	-0.000820
1872.000000	-0.000823
1870.000000	-0.000846
1868.000000	-0.000884
1866.000000	-0.000935
1864.000000	-0.001006
1862.000000	-0.001089
1860.000000	-0.001162
1858.000000	-0.001207
1856.000000	-0.001230
1854.000000	-0.001232
1852.000000	-0.001206
1850.000000	-0.001148
1848.000000	-0.001066
1846.000000	-0.000958
1844.000000	-0.000813
1842.000000	-0.000630
1840.000000	-0.000432
1838.000000	-0.000237
1836.000000	-0.000053
1834.000000	0.000114
1832.000000	0.000255
1830.000000	0.000367
1828.000000	0.000446
1826.000000	0.000485
1824.000000	0.000501
1822.000000	0.000531
1820.000000	0.000585
1818.000000	0.000649
1816.000000	0.000716
1814.000000	0.000796
1812.000000	0.000900
1810.000000	0.001047
1808.000000	0.001244
1806.000000	0.001480
1804.000000	0.001727
1802.000000	0.001973
1800.000000	0.002242
1798.000000	0.002548
1796.000000	0.002848
1794.000000	0.003107
1792.000000	0.003309
1790.000000	0.003458
1788.000000	0.003602
1786.000000	0.003763
1784.000000	0.003912
1782.000000	0.004029
1780.000000	0.004135
1778.000000	0.004258
1776.000000	0.004399
1774.000000	0.004539
1772.000000	0.004641
1770.000000	0.004681
1768.000000	0.004694
1766.000000	0.004703
1764.000000	0.004692
1762.000000	0.004659
1760.000000	0.004612
1758.000000	0.004553
1756.000000	0.004489
1754.000000	0.004418
1752.000000	0.004324
1750.000000	0.004226
1748.000000	0.004159
1746.000000	0.004128
1744.000000	0.004115
1742.000000	0.004111
1740.000000	0.004123
1738.000000	0.004168
1736.000000	0.004262
1734.000000	0.004391
1732.000000	0.004514
1730.000000	0.004614
1728.000000	0.004701
1726.000000	0.004787
1724.000000	0.004879
1722.000000	0.004982
1720.000000	0.005081
1718.000000	0.005159
1716.000000	0.005233
1714.000000	0.005319
1712.000000	0.005385
1710.000000	0.005424
1708.000000	0.005444
1706.000000	0.005439
1704.000000	0.005391
1702.000000	0.005288
1700.000000	0.005091
1698.000000	0.004798
1696.000000	0.004468
1694.000000	0.004140
1692.000000	0.003828
1690.000000	0.003536
1688.000000	0.003271
1686.000000	0.003056
1684.000000	0.002942
1682.000000	0.002996
1680.000000	0.003169
1678.000000	0.003400
1676.000000	0.003651
1674.000000	0.003905
1672.000000	0.004164
1670.000000	0.004441
1668.000000	0.004732
1666.000000	0.004998
1664.000000	0.005217
1662.000000	0.005408
1660.000000	0.005620
1658.000000	0.005879
1656.000000	0.006180
1654.000000	0.006516
1652.000000	0.006907
1650.000000	0.007397
1648.000000	0.007998
1646.000000	0.008720
1644.000000	0.009564
1642.000000	0.010530
1640.000000	0.011658
1638.000000	0.012988
1636.000000	0.014539
1634.000000	0.016285
1632.000000	0.018201
1630.000000	0.020300
1628.000000	0.022574
1626.000000	0.024975
1624.000000	0.027425
1622.000000	0.029829
1620.000000	0.032063
1618.000000	0.034022
1616.000000	0.035603
1614.000000	0.036711
1612.000000	0.037306
1610.000000	0.037377
1608.000000	0.036927
1606.000000	0.035987
1604.000000	0.034612
1602.000000	0.032883
1600.000000	0.030930
1598.000000	0.028875
1596.000000	0.026777
1594.000000	0.024676
1592.000000	0.022624
1590.000000	0.020656
1588.000000	0.018809
1586.000000	0.017134
1584.000000	0.015628
1582.000000	0.014239
1580.000000	0.012947
1578.000000	0.011754
1576.000000	0.010661
1574.000000	0.009672
1572.000000	0.008759
1570.000000	0.007869
1568.000000	0.006965
1566.000000	0.006057
1564.000000	0.005170
1562.000000	0.004313
1560.000000	0.003460
1558.000000	0.002581
1556.000000	0.001717
1554.000000	0.000846
1552.000000	-0.000013
1550.000000	-0.000818
1548.000000	-0.001560
1546.000000	-0.002256
1544.000000	-0.002904
1542.000000	-0.003488
1540.000000	-0.004009
1538.000000	-0.004439
1536.000000	-0.004801
1534.000000	-0.005142
1532.000000	-0.005481
1530.000000	-0.005796
1528.000000	-0.006071
1526.000000	-0.006316
1524.000000	-0.006556
1522.000000	-0.006798
1520.000000	-0.006999
1518.000000	-0.007131
1516.000000	-0.007218
1514.000000	-0.007295
1512.000000	-0.007382
1510.000000	-0.007470
1508.000000	-0.007522
1506.000000	-0.007502
1504.000000	-0.007459
1502.000000	-0.007442
1500.000000	-0.007431
1498.000000	-0.007377
1496.000000	-0.007259
1494.000000	-0.007092
1492.000000	-0.006907
1490.000000	-0.006746
1488.000000	-0.006629
1486.000000	-0.006517
1484.000000	-0.006389
1482.000000	-0.006259
1480.000000	-0.006139
1478.000000	-0.006016
1476.000000	-0.005888
1474.000000	-0.005757
1472.000000	-0.005595
1470.000000	-0.005372
1468.000000	-0.005111
1466.000000	-0.004841
1464.000000	-0.004583
1462.000000	-0.004356
1460.000000	-0.004167
1458.000000	-0.004013
1456.000000	-0.003878
1454.000000	-0.003769
1452.000000	-0.003695
1450.000000	-0.003626
1448.000000	-0.003535
1446.000000	-0.003418
1444.000000	-0.003270
1442.000000	-0.003087
1440.000000	-0.002881
1438.000000	-0.002671
1436.000000	-0.002472
1434.000000	-0.002289
1432.000000	-0.002122
1430.000000	-0.001974
1428.000000	-0.001849
1426.000000	-0.001758
1424.000000	-0.001706
1422.000000	-0.001666
1420.000000	-0.001610
1418.000000	-0.001553
1416.000000	-0.001522
1414.000000	-0.001498
1412.000000	-0.001463
1410.000000	-0.001400
1408.000000	-0.001313
1406.000000	-0.001230
1404.000000	-0.001182
1402.000000	-0.001163
1400.000000	-0.001147
1398.000000	-0.001133
1396.000000	-0.001140
1394.000000	-0.001185
1392.000000	-0.001253
1390.000000	-0.001320
1388.000000	-0.001376
1386.000000	-0.001425
1384.000000	-0.001469
1382.000000	-0.001502
1380.000000	-0.001520
1378.000000	-0.001522
1376.000000	-0.001518
1374.000000	-0.001524
1372.000000	-0.001533
1370.000000	-0.001532
1368.000000	-0.001516
1366.000000	-0.001485
1364.000000	-0.001444
1362.000000	-0.001413
1360.000000	-0.001405
1358.000000	-0.001398
1356.000000	-0.001376
1354.000000	-0.001344
1352.000000	-0.001314
1350.000000	-0.001294
1348.000000	-0.001292
1346.000000	-0.001296
1344.000000	-0.001274
1342.000000	-0.001207
1340.000000	-0.001111
1338.000000	-0.000995
1336.000000	-0.000850
1334.000000	-0.000670
1332.000000	-0.000453
1330.000000	-0.000197
1328.000000	0.000097
1326.000000	0.000401
1324.000000	0.000687
1322.000000	0.000943
1320.000000	0.001157
1318.000000	0.001318
1316.000000	0.001435
1314.000000	0.001517
1312.000000	0.001564
1310.000000	0.001580
1308.000000	0.001587
1306.000000	0.001614
1304.000000	0.001678
1302.000000	0.001787
1300.000000	0.001927
1298.000000	0.002074
1296.000000	0.002217
1294.000000	0.002364
1292.000000	0.002527
1290.000000	0.002711
1288.000000	0.002904
1286.000000	0.003094
1284.000000	0.003289
1282.000000	0.003512
1280.000000	0.003775
1278.000000	0.004082
1276.000000	0.004421
1274.000000	0.004770
1272.000000	0.005131
1270.000000	0.005518
1268.000000	0.005932
1266.000000	0.006373
1264.000000	0.006846
1262.000000	0.007345
1260.000000	0.007864
1258.000000	0.008422
1256.000000	0.009035
1254.000000	0.009707
1252.000000	0.010460
1250.000000	0.011323
1248.000000	0.012312
1246.000000	0.013457
1244.000000	0.014796
1242.000000	0.016343
1240.000000	0.018116
1238.000000	0.020145
1236.000000	0.022441
1234.000000	0.024986
1232.000000	0.027747
1230.000000	0.030680
1228.000000	0.033740
1226.000000	0.036891
1224.000000	0.040094
1222.000000	0.043285
1220.000000	0.046378
1218.000000	0.049306
1216.000000	0.052046
1214.000000	0.054588
1212.000000	0.056914
1210.000000	0.059006
1208.000000	0.060839
1206.000000	0.062419
1204.000000	0.063784
1202.000000	0.064967
1200.000000	0.065984
1198.000000	0.066860
1196.000000	0.067618
1194.000000	0.068275
1192.000000	0.068849
1190.000000	0.069359
1188.000000	0.069820
1186.000000	0.070235
1184.000000	0.070601
1182.000000	0.070922
1180.000000	0.071204
1178.000000	0.071468
1176.000000	0.071744
1174.000000	0.072048
1172.000000	0.072386
1170.000000	0.072755
1168.000000	0.073157
1166.000000	0.073596
1164.000000	0.074074
1162.000000	0.074580
1160.000000	0.075078
1158.000000	0.075536
1156.000000	0.075940
1154.000000	0.076289
1152.000000	0.076602
1150.000000	0.076904
1148.000000	0.077210
1146.000000	0.077536
1144.000000	0.077900
1142.000000	0.078303
1140.000000	0.078728
1138.000000	0.079189
1136.000000	0.079700
1134.000000	0.080243
1132.000000	0.080787
1130.000000	0.081295
1128.000000	0.081753
1126.000000	0.082187
1124.000000	0.082625
1122.000000	0.083048
1120.000000	0.083428
1118.000000	0.083765
1116.000000	0.084072
1114.000000	0.084365
1112.000000	0.084652
1110.000000	0.084935
1108.000000	0.085220
1106.000000	0.085521
1104.000000	0.085848
1102.000000	0.086199
1100.000000	0.086566
1098.000000	0.086919
1096.000000	0.087203
1094.000000	0.087364
1092.000000	0.087379
1090.000000	0.087257
1088.000000	0.087020
1086.000000	0.086710
1084.000000	0.086381
1082.000000	0.086106
1080.000000	0.085981
1078.000000	0.086127
1076.000000	0.086620
1074.000000	0.087452
1072.000000	0.088556
1070.000000	0.089843
1068.000000	0.091206
1066.000000	0.092542
1064.000000	0.093746
1062.000000	0.094684
1060.000000	0.095247
1058.000000	0.095407
1056.000000	0.095153
1054.000000	0.094491
1052.000000	0.093473
1050.000000	0.092153
1048.000000	0.090579
1046.000000	0.088824
1044.000000	0.086974
1042.000000	0.085077
1040.000000	0.083164
1038.000000	0.081284
1036.000000	0.079471
1034.000000	0.077741
1032.000000	0.076105
1030.000000	0.074552
1028.000000	0.073073
1026.000000	0.071678
1024.000000	0.070375
1022.000000	0.069156
1020.000000	0.068023
1018.000000	0.066961
1016.000000	0.065945
1014.000000	0.064968
1012.000000	0.064011
1010.000000	0.063016
1008.000000	0.061933
1006.000000	0.060749
1004.000000	0.059460
1002.000000	0.058069
1000.000000	0.056595
998.000000	0.055056
996.000000	0.053463
994.000000	0.051836
992.000000	0.050193
990.000000	0.048550
988.000000	0.046931
986.000000	0.045365
984.000000	0.043867
982.000000	0.042431
980.000000	0.041050
978.000000	0.039729
976.000000	0.038478
974.000000	0.037296
972.000000	0.036152
970.000000	0.034997
968.000000	0.033795
966.000000	0.032537
964.000000	0.031233
962.000000	0.029901
960.000000	0.028561
958.000000	0.027229
956.000000	0.025917
954.000000	0.024650
952.000000	0.023465
950.000000	0.022381
948.000000	0.021399
946.000000	0.020501
944.000000	0.019654
942.000000	0.018846
940.000000	0.018101
938.000000	0.017430
936.000000	0.016826
934.000000	0.016286
932.000000	0.015808
930.000000	0.015390
928.000000	0.015038
926.000000	0.014741
924.000000	0.014468
922.000000	0.014199
920.000000	0.013924
918.000000	0.013613
916.000000	0.013223
914.000000	0.012731
912.000000	0.012147
910.000000	0.011496
908.000000	0.010790
906.000000	0.010031
904.000000	0.009202
902.000000	0.008288
900.000000	0.007341
898.000000	0.006423
896.000000	0.005529
894.000000	0.004609
892.000000	0.003654
890.000000	0.002714
888.000000	0.001834
886.000000	0.001019
884.000000	0.000240
882.000000	-0.000530
880.000000	-0.001245
878.000000	-0.001833
876.000000	-0.002274
874.000000	-0.002595
872.000000	-0.002863
870.000000	-0.003126
868.000000	-0.003372
866.000000	-0.003559
864.000000	-0.003697
862.000000	-0.003877
860.000000	-0.004190
858.000000	-0.004659
856.000000	-0.005256
854.000000	-0.005918
852.000000	-0.006597
850.000000	-0.007316
848.000000	-0.008144
846.000000	-0.009097
844.000000	-0.010112
842.000000	-0.011128
840.000000	-0.012108
838.000000	-0.013046
836.000000	-0.013962
834.000000	-0.014864
832.000000	-0.015730
830.000000	-0.016502
828.000000	-0.017135
826.000000	-0.017626
824.000000	-0.018028
822.000000	-0.018416
820.000000	-0.018837
818.000000	-0.019309
816.000000	-0.019821
814.000000	-0.020368
812.000000	-0.020988
810.000000	-0.021739
808.000000	-0.022636
806.000000	-0.023647
804.000000	-0.024745
802.000000	-0.025889
800.000000	-0.027035
798.000000	-0.028192
796.000000	-0.029371
794.000000	-0.030530
792.000000	-0.031603
790.000000	-0.032546
788.000000	-0.033346
786.000000	-0.034008
784.000000	-0.034595
782.000000	-0.035169
780.000000	-0.035735
778.000000	-0.036299
776.000000	-0.036914
774.000000	-0.037655
772.000000	-0.038571
770.000000	-0.039638
768.000000	-0.040795
766.000000	-0.041997
764.000000	-0.043220
762.000000	-0.044464
760.000000	-0.045728
758.000000	-0.046948
756.000000	-0.048044
754.000000	-0.049026
752.000000	-0.049944
750.000000	-0.050790
748.000000	-0.051572
746.000000	-0.052347
744.000000	-0.053108
742.000000	-0.053772
740.000000	-0.054283
738.000000	-0.054634
736.000000	-0.054823
734.000000	-0.054870
732.000000	-0.054757
730.000000	-0.054371
728.000000	-0.053613
726.000000	-0.052522
724.000000	-0.051239
722.000000	-0.049884
720.000000	-0.048411
718.000000	-0.046581
716.000000	-0.044110
714.000000	-0.040833
712.000000	-0.036674
710.000000	-0.031468
708.000000	-0.025054
706.000000	-0.017348
704.000000	-0.008384
702.000000	0.001509
700.000000	0.011857
