PE IR       SUBTECH     SPECTRUM    ASCII       PEDS        4.00        
   -1
LS_5_unfl.asc
14/09/24
10:00:58.00
14/09/26
10:36:09.00
nystrom.12
Co-added spectrum 3 at 1504, -2316 (Image Marker 1)
700.000000
#HDR
-1
-1
#GR
cm-1
A
1.0
0.0
4000.000000
-2.000000
1651
8
0.083811
-0.048150
#DATA
4000.000000	0.041850
3998.000000	0.042080
3996.000000	0.042256
3994.000000	0.042352
3992.000000	0.042386
3990.000000	0.042412
3988.000000	0.042449
3986.000000	0.042456
3984.000000	0.042422
3982.000000	0.042374
3980.000000	0.042332
3978.000000	0.042324
3976.000000	0.042373
3974.000000	0.042438
3972.000000	0.042445
3970.000000	0.042386
3968.000000	0.042294
3966.000000	0.042175
3964.000000	0.042044
3962.000000	0.041912
3960.000000	0.041747
3958.000000	0.041548
3956.000000	0.041353
3954.000000	0.041185
3952.000000	0.041033
3950.000000	0.040903
3948.000000	0.040822
3946.000000	0.040763
3944.000000	0.040673
3942.000000	0.040576
3940.000000	0.040540
3938.000000	0.040572
3936.000000	0.040647
3934.000000	0.040744
3932.000000	0.040843
3930.000000	0.040943
3928.000000	0.041068
3926.000000	0.041238
3924.000000	0.041416
3922.000000	0.041518
3920.000000	0.041508
3918.000000	0.041433
3916.000000	0.041329
3914.000000	0.041169
3912.000000	0.040940
3910.000000	0.040677
3908.000000	0.040388
3906.000000	0.040108
3904.000000	0.039909
3902.000000	0.039789
3900.000000	0.039712
3898.000000	0.039701
3896.000000	0.039775
3894.000000	0.039909
3892.000000	0.040090
3890.000000	0.040309
3888.000000	0.040496
3886.000000	0.040635
3884.000000	0.040752
3882.000000	0.040821
3880.000000	0.040827
3878.000000	0.040773
3876.000000	0.040677
3874.000000	0.040556
3872.000000	0.040413
3870.000000	0.040258
3868.000000	0.040132
3866.000000	0.040080
3864.000000	0.040125
3862.000000	0.040271
3860.000000	0.040435
3858.000000	0.040540
3856.000000	0.040607
3854.000000	0.040714
3852.000000	0.040850
3850.000000	0.040854
3848.000000	0.040694
3846.000000	0.040391
3844.000000	0.040027
3842.000000	0.039710
3840.000000	0.039460
3838.000000	0.039212
3836.000000	0.038942
3834.000000	0.038687
3832.000000	0.038479
3830.000000	0.038345
3828.000000	0.038290
3826.000000	0.038266
3824.000000	0.038234
3822.000000	0.038242
3820.000000	0.038342
3818.000000	0.038443
3816.000000	0.038541
3814.000000	0.038694
3812.000000	0.038850
3810.000000	0.038988
3808.000000	0.039161
3806.000000	0.039398
3804.000000	0.039627
3802.000000	0.039850
3800.000000	0.040110
3798.000000	0.040297
3796.000000	0.040353
3794.000000	0.040335
3792.000000	0.040292
3790.000000	0.040213
3788.000000	0.040084
3786.000000	0.039914
3784.000000	0.039762
3782.000000	0.039697
3780.000000	0.039730
3778.000000	0.039816
3776.000000	0.039875
3774.000000	0.039858
3772.000000	0.039793
3770.000000	0.039733
3768.000000	0.039646
3766.000000	0.039475
3764.000000	0.039277
3762.000000	0.039057
3760.000000	0.038800
3758.000000	0.038592
3756.000000	0.038472
3754.000000	0.038374
3752.000000	0.038315
3750.000000	0.038347
3748.000000	0.038361
3746.000000	0.038337
3744.000000	0.038405
3742.000000	0.038574
3740.000000	0.038748
3738.000000	0.038937
3736.000000	0.039164
3734.000000	0.039384
3732.000000	0.039573
3730.000000	0.039762
3728.000000	0.039928
3726.000000	0.040057
3724.000000	0.040185
3722.000000	0.040292
3720.000000	0.040324
3718.000000	0.040263
3716.000000	0.040111
3714.000000	0.039878
3712.000000	0.039598
3710.000000	0.039292
3708.000000	0.038886
3706.000000	0.038376
3704.000000	0.037837
3702.000000	0.037351
3700.000000	0.036953
3698.000000	0.036655
3696.000000	0.036479
3694.000000	0.036431
3692.000000	0.036548
3690.000000	0.036897
3688.000000	0.037463
3686.000000	0.038139
3684.000000	0.038854
3682.000000	0.039578
3680.000000	0.040275
3678.000000	0.040912
3676.000000	0.041439
3674.000000	0.041741
3672.000000	0.041772
3670.000000	0.041649
3668.000000	0.041472
3666.000000	0.041276
3664.000000	0.041097
3662.000000	0.040985
3660.000000	0.040977
3658.000000	0.041100
3656.000000	0.041396
3654.000000	0.041838
3652.000000	0.042337
3650.000000	0.042866
3648.000000	0.043437
3646.000000	0.043982
3644.000000	0.044409
3642.000000	0.044751
3640.000000	0.045071
3638.000000	0.045379
3636.000000	0.045671
3634.000000	0.045942
3632.000000	0.046177
3630.000000	0.046400
3628.000000	0.046715
3626.000000	0.047159
3624.000000	0.047646
3622.000000	0.048159
3620.000000	0.048739
3618.000000	0.049393
3616.000000	0.050056
3614.000000	0.050692
3612.000000	0.051260
3610.000000	0.051703
3608.000000	0.052042
3606.000000	0.052296
3604.000000	0.052423
3602.000000	0.052428
3600.000000	0.052390
3598.000000	0.052374
3596.000000	0.052405
3594.000000	0.052483
3592.000000	0.052588
3590.000000	0.052722
3588.000000	0.052938
3586.000000	0.053233
3584.000000	0.053465
3582.000000	0.053585
3580.000000	0.053649
3578.000000	0.053681
3576.000000	0.053691
3574.000000	0.053686
3572.000000	0.053651
3570.000000	0.053596
3568.000000	0.053627
3566.000000	0.053830
3564.000000	0.054143
3562.000000	0.054506
3560.000000	0.054937
3558.000000	0.055442
3556.000000	0.055995
3554.000000	0.056565
3552.000000	0.057113
3550.000000	0.057588
3548.000000	0.057968
3546.000000	0.058283
3544.000000	0.058548
3542.000000	0.058723
3540.000000	0.058788
3538.000000	0.058782
3536.000000	0.058752
3534.000000	0.058716
3532.000000	0.058681
3530.000000	0.058670
3528.000000	0.058712
3526.000000	0.058802
3524.000000	0.058955
3522.000000	0.059191
3520.000000	0.059481
3518.000000	0.059828
3516.000000	0.060239
3514.000000	0.060679
3512.000000	0.061091
3510.000000	0.061449
3508.000000	0.061753
3506.000000	0.061983
3504.000000	0.062113
3502.000000	0.062142
3500.000000	0.062095
3498.000000	0.061995
3496.000000	0.061866
3494.000000	0.061751
3492.000000	0.061668
3490.000000	0.061633
3488.000000	0.061681
3486.000000	0.061792
3484.000000	0.061912
3482.000000	0.062057
3480.000000	0.062267
3478.000000	0.062523
3476.000000	0.062800
3474.000000	0.063096
3472.000000	0.063385
3470.000000	0.063637
3468.000000	0.063839
3466.000000	0.063970
3464.000000	0.064023
3462.000000	0.064008
3460.000000	0.063925
3458.000000	0.063764
3456.000000	0.063528
3454.000000	0.063256
3452.000000	0.063015
3450.000000	0.062826
3448.000000	0.062632
3446.000000	0.062379
3444.000000	0.062096
3442.000000	0.061832
3440.000000	0.061595
3438.000000	0.061373
3436.000000	0.061137
3434.000000	0.060852
3432.000000	0.060536
3430.000000	0.060243
3428.000000	0.059969
3426.000000	0.059681
3424.000000	0.059350
3422.000000	0.058980
3420.000000	0.058598
3418.000000	0.058201
3416.000000	0.057763
3414.000000	0.057272
3412.000000	0.056745
3410.000000	0.056211
3408.000000	0.055676
3406.000000	0.055133
3404.000000	0.054607
3402.000000	0.054137
3400.000000	0.053739
3398.000000	0.053419
3396.000000	0.053180
3394.000000	0.053022
3392.000000	0.052939
3390.000000	0.052911
3388.000000	0.052883
3386.000000	0.052806
3384.000000	0.052688
3382.000000	0.052556
3380.000000	0.052415
3378.000000	0.052255
3376.000000	0.052065
3374.000000	0.051853
3372.000000	0.051635
3370.000000	0.051420
3368.000000	0.051199
3366.000000	0.050974
3364.000000	0.050742
3362.000000	0.050487
3360.000000	0.050219
3358.000000	0.049959
3356.000000	0.049714
3354.000000	0.049489
3352.000000	0.049303
3350.000000	0.049142
3348.000000	0.048957
3346.000000	0.048744
3344.000000	0.048520
3342.000000	0.048289
3340.000000	0.048075
3338.000000	0.047891
3336.000000	0.047703
3334.000000	0.047526
3332.000000	0.047438
3330.000000	0.047473
3328.000000	0.047597
3326.000000	0.047757
3324.000000	0.047896
3322.000000	0.048004
3320.000000	0.048118
3318.000000	0.048226
3316.000000	0.048246
3314.000000	0.048154
3312.000000	0.048025
3310.000000	0.047936
3308.000000	0.047885
3306.000000	0.047836
3304.000000	0.047792
3302.000000	0.047797
3300.000000	0.047898
3298.000000	0.048104
3296.000000	0.048354
3294.000000	0.048570
3292.000000	0.048740
3290.000000	0.048887
3288.000000	0.049006
3286.000000	0.049058
3284.000000	0.049003
3282.000000	0.048818
3280.000000	0.048515
3278.000000	0.048125
3276.000000	0.047683
3274.000000	0.047214
3272.000000	0.046733
3270.000000	0.046257
3268.000000	0.045794
3266.000000	0.045356
3264.000000	0.044978
3262.000000	0.044688
3260.000000	0.044488
3258.000000	0.044386
3256.000000	0.044382
3254.000000	0.044461
3252.000000	0.044602
3250.000000	0.044782
3248.000000	0.044962
3246.000000	0.045122
3244.000000	0.045267
3242.000000	0.045347
3240.000000	0.045307
3238.000000	0.045187
3236.000000	0.045044
3234.000000	0.044914
3232.000000	0.044833
3230.000000	0.044802
3228.000000	0.044777
3226.000000	0.044737
3224.000000	0.044721
3222.000000	0.044745
3220.000000	0.044749
3218.000000	0.044687
3216.000000	0.044566
3214.000000	0.044411
3212.000000	0.044240
3210.000000	0.044082
3208.000000	0.043948
3206.000000	0.043834
3204.000000	0.043757
3202.000000	0.043730
3200.000000	0.043723
3198.000000	0.043700
3196.000000	0.043662
3194.000000	0.043620
3192.000000	0.043565
3190.000000	0.043475
3188.000000	0.043330
3186.000000	0.043129
3184.000000	0.042904
3182.000000	0.042692
3180.000000	0.042475
3178.000000	0.042217
3176.000000	0.041927
3174.000000	0.041631
3172.000000	0.041352
3170.000000	0.041121
3168.000000	0.040935
3166.000000	0.040750
3164.000000	0.040535
3162.000000	0.040307
3160.000000	0.040098
3158.000000	0.039913
3156.000000	0.039723
3154.000000	0.039490
3152.000000	0.039213
3150.000000	0.038945
3148.000000	0.038724
3146.000000	0.038540
3144.000000	0.038362
3142.000000	0.038179
3140.000000	0.038030
3138.000000	0.037968
3136.000000	0.037995
3134.000000	0.038050
3132.000000	0.038085
3130.000000	0.038123
3128.000000	0.038195
3126.000000	0.038281
3124.000000	0.038348
3122.000000	0.038378
3120.000000	0.038357
3118.000000	0.038315
3116.000000	0.038308
3114.000000	0.038322
3112.000000	0.038336
3110.000000	0.038367
3108.000000	0.038404
3106.000000	0.038416
3104.000000	0.038397
3102.000000	0.038340
3100.000000	0.038224
3098.000000	0.038057
3096.000000	0.037852
3094.000000	0.037598
3092.000000	0.037305
3090.000000	0.037038
3088.000000	0.036846
3086.000000	0.036730
3084.000000	0.036663
3082.000000	0.036618
3080.000000	0.036603
3078.000000	0.036638
3076.000000	0.036729
3074.000000	0.036840
3072.000000	0.036907
3070.000000	0.036904
3068.000000	0.036848
3066.000000	0.036787
3064.000000	0.036745
3062.000000	0.036718
3060.000000	0.036676
3058.000000	0.036605
3056.000000	0.036541
3054.000000	0.036508
3052.000000	0.036502
3050.000000	0.036506
3048.000000	0.036482
3046.000000	0.036405
3044.000000	0.036307
3042.000000	0.036239
3040.000000	0.036206
3038.000000	0.036169
3036.000000	0.036097
3034.000000	0.036007
3032.000000	0.035921
3030.000000	0.035834
3028.000000	0.035726
3026.000000	0.035567
3024.000000	0.035335
3022.000000	0.035060
3020.000000	0.034804
3018.000000	0.034585
3016.000000	0.034388
3014.000000	0.034229
3012.000000	0.034143
3010.000000	0.034125
3008.000000	0.034160
3006.000000	0.034253
3004.000000	0.034380
3002.000000	0.034505
3000.000000	0.034641
2998.000000	0.034815
2996.000000	0.035001
2994.000000	0.035173
2992.000000	0.035337
2990.000000	0.035480
2988.000000	0.035585
2986.000000	0.035667
2984.000000	0.035719
2982.000000	0.035711
2980.000000	0.035651
2978.000000	0.035569
2976.000000	0.035493
2974.000000	0.035448
2972.000000	0.035451
2970.000000	0.035499
2968.000000	0.035584
2966.000000	0.035712
2964.000000	0.035883
2962.000000	0.036061
2960.000000	0.036196
2958.000000	0.036273
2956.000000	0.036307
2954.000000	0.036327
2952.000000	0.036338
2950.000000	0.036326
2948.000000	0.036292
2946.000000	0.036247
2944.000000	0.036211
2942.000000	0.036219
2940.000000	0.036279
2938.000000	0.036349
2936.000000	0.036399
2934.000000	0.036448
2932.000000	0.036510
2930.000000	0.036587
2928.000000	0.036669
2926.000000	0.036717
2924.000000	0.036695
2922.000000	0.036614
2920.000000	0.036518
2918.000000	0.036422
2916.000000	0.036288
2914.000000	0.036080
2912.000000	0.035819
2910.000000	0.035576
2908.000000	0.035387
2906.000000	0.035226
2904.000000	0.035076
2902.000000	0.034949
2900.000000	0.034879
2898.000000	0.034909
2896.000000	0.035040
2894.000000	0.035218
2892.000000	0.035400
2890.000000	0.035583
2888.000000	0.035786
2886.000000	0.036002
2884.000000	0.036189
2882.000000	0.036317
2880.000000	0.036386
2878.000000	0.036415
2876.000000	0.036434
2874.000000	0.036474
2872.000000	0.036538
2870.000000	0.036630
2868.000000	0.036758
2866.000000	0.036907
2864.000000	0.037066
2862.000000	0.037250
2860.000000	0.037448
2858.000000	0.037612
2856.000000	0.037724
2854.000000	0.037779
2852.000000	0.037761
2850.000000	0.037704
2848.000000	0.037660
2846.000000	0.037618
2844.000000	0.037551
2842.000000	0.037478
2840.000000	0.037420
2838.000000	0.037385
2836.000000	0.037379
2834.000000	0.037369
2832.000000	0.037318
2830.000000	0.037219
2828.000000	0.037086
2826.000000	0.036950
2824.000000	0.036841
2822.000000	0.036749
2820.000000	0.036650
2818.000000	0.036556
2816.000000	0.036485
2814.000000	0.036459
2812.000000	0.036499
2810.000000	0.036591
2808.000000	0.036677
2806.000000	0.036739
2804.000000	0.036798
2802.000000	0.036872
2800.000000	0.036946
2798.000000	0.036973
2796.000000	0.036923
2794.000000	0.036800
2792.000000	0.036634
2790.000000	0.036445
2788.000000	0.036229
2786.000000	0.036004
2784.000000	0.035797
2782.000000	0.035643
2780.000000	0.035575
2778.000000	0.035584
2776.000000	0.035641
2774.000000	0.035747
2772.000000	0.035925
2770.000000	0.036166
2768.000000	0.036416
2766.000000	0.036623
2764.000000	0.036774
2762.000000	0.036887
2760.000000	0.036985
2758.000000	0.037088
2756.000000	0.037195
2754.000000	0.037296
2752.000000	0.037389
2750.000000	0.037506
2748.000000	0.037681
2746.000000	0.037900
2744.000000	0.038120
2742.000000	0.038311
2740.000000	0.038452
2738.000000	0.038544
2736.000000	0.038621
2734.000000	0.038690
2732.000000	0.038712
2730.000000	0.038698
2728.000000	0.038682
2726.000000	0.038674
2724.000000	0.038685
2722.000000	0.038718
2720.000000	0.038742
2718.000000	0.038737
2716.000000	0.038742
2714.000000	0.038797
2712.000000	0.038876
2710.000000	0.038938
2708.000000	0.038984
2706.000000	0.039030
2704.000000	0.039083
2702.000000	0.039159
2700.000000	0.039255
2698.000000	0.039339
2696.000000	0.039399
2694.000000	0.039468
2692.000000	0.039575
2690.000000	0.039704
2688.000000	0.039832
2686.000000	0.039940
2684.000000	0.040026
2682.000000	0.040111
2680.000000	0.040213
2678.000000	0.040317
2676.000000	0.040412
2674.000000	0.040519
2672.000000	0.040650
2670.000000	0.040809
2668.000000	0.040987
2666.000000	0.041159
2664.000000	0.041308
2662.000000	0.041436
2660.000000	0.041531
2658.000000	0.041569
2656.000000	0.041525
2654.000000	0.041389
2652.000000	0.041189
2650.000000	0.040983
2648.000000	0.040821
2646.000000	0.040706
2644.000000	0.040612
2642.000000	0.040528
2640.000000	0.040470
2638.000000	0.040476
2636.000000	0.040571
2634.000000	0.040713
2632.000000	0.040838
2630.000000	0.040921
2628.000000	0.040980
2626.000000	0.041053
2624.000000	0.041132
2622.000000	0.041173
2620.000000	0.041154
2618.000000	0.041092
2616.000000	0.041024
2614.000000	0.040968
2612.000000	0.040916
2610.000000	0.040848
2608.000000	0.040779
2606.000000	0.040766
2604.000000	0.040847
2602.000000	0.040985
2600.000000	0.041119
2598.000000	0.041219
2596.000000	0.041300
2594.000000	0.041382
2592.000000	0.041466
2590.000000	0.041501
2588.000000	0.041440
2586.000000	0.041300
2584.000000	0.041119
2582.000000	0.040931
2580.000000	0.040760
2578.000000	0.040611
2576.000000	0.040478
2574.000000	0.040367
2572.000000	0.040309
2570.000000	0.040308
2568.000000	0.040357
2566.000000	0.040449
2564.000000	0.040556
2562.000000	0.040649
2560.000000	0.040721
2558.000000	0.040784
2556.000000	0.040858
2554.000000	0.040940
2552.000000	0.041011
2550.000000	0.041041
2548.000000	0.041033
2546.000000	0.041026
2544.000000	0.041041
2542.000000	0.041065
2540.000000	0.041084
2538.000000	0.041082
2536.000000	0.041079
2534.000000	0.041136
2532.000000	0.041272
2530.000000	0.041439
2528.000000	0.041579
2526.000000	0.041668
2524.000000	0.041729
2522.000000	0.041778
2520.000000	0.041796
2518.000000	0.041749
2516.000000	0.041635
2514.000000	0.041499
2512.000000	0.041390
2510.000000	0.041324
2508.000000	0.041309
2506.000000	0.041347
2504.000000	0.041425
2502.000000	0.041529
2500.000000	0.041652
2498.000000	0.041773
2496.000000	0.041848
2494.000000	0.041873
2492.000000	0.041863
2490.000000	0.041801
2488.000000	0.041684
2486.000000	0.041543
2484.000000	0.041398
2482.000000	0.041269
2480.000000	0.041188
2478.000000	0.041168
2476.000000	0.041188
2474.000000	0.041239
2472.000000	0.041325
2470.000000	0.041446
2468.000000	0.041609
2466.000000	0.041789
2464.000000	0.041936
2462.000000	0.042042
2460.000000	0.042139
2458.000000	0.042229
2456.000000	0.042295
2454.000000	0.042332
2452.000000	0.042328
2450.000000	0.042286
2448.000000	0.042248
2446.000000	0.042238
2444.000000	0.042228
2442.000000	0.042191
2440.000000	0.042150
2438.000000	0.042120
2436.000000	0.042091
2434.000000	0.042066
2432.000000	0.042051
2430.000000	0.042027
2428.000000	0.041989
2426.000000	0.041948
2424.000000	0.041928
2422.000000	0.041956
2420.000000	0.042042
2418.000000	0.042177
2416.000000	0.042332
2414.000000	0.042491
2412.000000	0.042664
2410.000000	0.042848
2408.000000	0.043017
2406.000000	0.043146
2404.000000	0.043218
2402.000000	0.043247
2400.000000	0.043248
2398.000000	0.043217
2396.000000	0.043147
2394.000000	0.043058
2392.000000	0.042994
2390.000000	0.042977
2388.000000	0.042980
2386.000000	0.042963
2384.000000	0.042929
2382.000000	0.042932
2380.000000	0.043036
2378.000000	0.043254
2376.000000	0.043552
2374.000000	0.043887
2372.000000	0.044240
2370.000000	0.044622
2368.000000	0.045054
2366.000000	0.045488
2364.000000	0.045819
2362.000000	0.045994
2360.000000	0.046016
2358.000000	0.045903
2356.000000	0.045725
2354.000000	0.045571
2352.000000	0.045407
2350.000000	0.045171
2348.000000	0.044930
2346.000000	0.044745
2344.000000	0.044559
2342.000000	0.044295
2340.000000	0.043956
2338.000000	0.043556
2336.000000	0.043122
2334.000000	0.042706
2332.000000	0.042279
2330.000000	0.041828
2328.000000	0.041465
2326.000000	0.041274
2324.000000	0.041222
2322.000000	0.041263
2320.000000	0.041356
2318.000000	0.041444
2316.000000	0.041542
2314.000000	0.041708
2312.000000	0.041934
2310.000000	0.042168
2308.000000	0.042394
2306.000000	0.042625
2304.000000	0.042875
2302.000000	0.043169
2300.000000	0.043502
2298.000000	0.043824
2296.000000	0.044078
2294.000000	0.044243
2292.000000	0.044327
2290.000000	0.044344
2288.000000	0.044309
2286.000000	0.044240
2284.000000	0.044153
2282.000000	0.044062
2280.000000	0.043989
2278.000000	0.043950
2276.000000	0.043943
2274.000000	0.043951
2272.000000	0.043979
2270.000000	0.044020
2268.000000	0.044046
2266.000000	0.044038
2264.000000	0.044013
2262.000000	0.044009
2260.000000	0.044035
2258.000000	0.044080
2256.000000	0.044140
2254.000000	0.044192
2252.000000	0.044232
2250.000000	0.044275
2248.000000	0.044312
2246.000000	0.044303
2244.000000	0.044233
2242.000000	0.044132
2240.000000	0.044011
2238.000000	0.043856
2236.000000	0.043678
2234.000000	0.043499
2232.000000	0.043335
2230.000000	0.043213
2228.000000	0.043140
2226.000000	0.043063
2224.000000	0.042942
2222.000000	0.042824
2220.000000	0.042771
2218.000000	0.042786
2216.000000	0.042825
2214.000000	0.042856
2212.000000	0.042874
2210.000000	0.042902
2208.000000	0.042984
2206.000000	0.043138
2204.000000	0.043317
2202.000000	0.043453
2200.000000	0.043521
2198.000000	0.043551
2196.000000	0.043567
2194.000000	0.043565
2192.000000	0.043529
2190.000000	0.043436
2188.000000	0.043270
2186.000000	0.043044
2184.000000	0.042802
2182.000000	0.042556
2180.000000	0.042288
2178.000000	0.041998
2176.000000	0.041694
2174.000000	0.041380
2172.000000	0.041062
2170.000000	0.040753
2168.000000	0.040470
2166.000000	0.040218
2164.000000	0.039993
2162.000000	0.039784
2160.000000	0.039593
2158.000000	0.039429
2156.000000	0.039317
2154.000000	0.039272
2152.000000	0.039263
2150.000000	0.039254
2148.000000	0.039243
2146.000000	0.039242
2144.000000	0.039262
2142.000000	0.039301
2140.000000	0.039321
2138.000000	0.039294
2136.000000	0.039223
2134.000000	0.039120
2132.000000	0.038984
2130.000000	0.038818
2128.000000	0.038624
2126.000000	0.038390
2124.000000	0.038100
2122.000000	0.037750
2120.000000	0.037352
2118.000000	0.036929
2116.000000	0.036508
2114.000000	0.036088
2112.000000	0.035648
2110.000000	0.035184
2108.000000	0.034720
2106.000000	0.034289
2104.000000	0.033897
2102.000000	0.033533
2100.000000	0.033184
2098.000000	0.032833
2096.000000	0.032483
2094.000000	0.032139
2092.000000	0.031786
2090.000000	0.031412
2088.000000	0.031028
2086.000000	0.030642
2084.000000	0.030249
2082.000000	0.029862
2080.000000	0.029505
2078.000000	0.029183
2076.000000	0.028905
2074.000000	0.028673
2072.000000	0.028470
2070.000000	0.028288
2068.000000	0.028128
2066.000000	0.027981
2064.000000	0.027832
2062.000000	0.027676
2060.000000	0.027505
2058.000000	0.027333
2056.000000	0.027183
2054.000000	0.027045
2052.000000	0.026897
2050.000000	0.026736
2048.000000	0.026568
2046.000000	0.026396
2044.000000	0.026222
2042.000000	0.026047
2040.000000	0.025854
2038.000000	0.025632
2036.000000	0.025395
2034.000000	0.025174
2032.000000	0.024972
2030.000000	0.024777
2028.000000	0.024567
2026.000000	0.024333
2024.000000	0.024079
2022.000000	0.023818
2020.000000	0.023567
2018.000000	0.023324
2016.000000	0.023065
2014.000000	0.022787
2012.000000	0.022517
2010.000000	0.022285
2008.000000	0.022087
2006.000000	0.021909
2004.000000	0.021733
2002.000000	0.021561
2000.000000	0.021408
1998.000000	0.021279
1996.000000	0.021179
1994.000000	0.021112
1992.000000	0.021066
1990.000000	0.021021
1988.000000	0.020968
1986.000000	0.020898
1984.000000	0.020802
1982.000000	0.020690
1980.000000	0.020552
1978.000000	0.020365
1976.000000	0.020124
1974.000000	0.019861
1972.000000	0.019609
1970.000000	0.019387
1968.000000	0.019185
1966.000000	0.018978
1964.000000	0.018765
1962.000000	0.018579
1960.000000	0.018438
1958.000000	0.018324
1956.000000	0.018222
1954.000000	0.018134
1952.000000	0.018058
1950.000000	0.017994
1948.000000	0.017956
1946.000000	0.017922
1944.000000	0.017848
1942.000000	0.017729
1940.000000	0.017588
1938.000000	0.017427
1936.000000	0.017231
1934.000000	0.017000
1932.000000	0.016750
1930.000000	0.016507
1928.000000	0.016303
1926.000000	0.016156
1924.000000	0.016049
1922.000000	0.015960
1920.000000	0.015898
1918.000000	0.015882
1916.000000	0.015893
1914.000000	0.015891
1912.000000	0.015863
1910.000000	0.015809
1908.000000	0.015730
1906.000000	0.015633
1904.000000	0.015521
1902.000000	0.015381
1900.000000	0.015220
1898.000000	0.015062
1896.000000	0.014908
1894.000000	0.014743
1892.000000	0.014562
1890.000000	0.014372
1888.000000	0.014182
1886.000000	0.013994
1884.000000	0.013799
1882.000000	0.013594
1880.000000	0.013395
1878.000000	0.013211
1876.000000	0.013041
1874.000000	0.012882
1872.000000	0.012726
1870.000000	0.012567
1868.000000	0.012402
1866.000000	0.012233
1864.000000	0.012055
1862.000000	0.011861
1860.000000	0.011639
1858.000000	0.011373
1856.000000	0.011072
1854.000000	0.010750
1852.000000	0.010418
1850.000000	0.010088
1848.000000	0.009765
1846.000000	0.009453
1844.000000	0.009167
1842.000000	0.008952
1840.000000	0.008826
1838.000000	0.008765
1836.000000	0.008741
1834.000000	0.008732
1832.000000	0.008719
1830.000000	0.008682
1828.000000	0.008620
1826.000000	0.008527
1824.000000	0.008378
1822.000000	0.008168
1820.000000	0.007899
1818.000000	0.007588
1816.000000	0.007268
1814.000000	0.006961
1812.000000	0.006665
1810.000000	0.006384
1808.000000	0.006125
1806.000000	0.005886
1804.000000	0.005672
1802.000000	0.005491
1800.000000	0.005322
1798.000000	0.005157
1796.000000	0.004993
1794.000000	0.004812
1792.000000	0.004605
1790.000000	0.004392
1788.000000	0.004198
1786.000000	0.004020
1784.000000	0.003850
1782.000000	0.003682
1780.000000	0.003532
1778.000000	0.003425
1776.000000	0.003353
1774.000000	0.003278
1772.000000	0.003167
1770.000000	0.003014
1768.000000	0.002842
1766.000000	0.002685
1764.000000	0.002550
1762.000000	0.002409
1760.000000	0.002244
1758.000000	0.002090
1756.000000	0.001965
1754.000000	0.001868
1752.000000	0.001779
1750.000000	0.001665
1748.000000	0.001491
1746.000000	0.001254
1744.000000	0.000981
1742.000000	0.000691
1740.000000	0.000391
1738.000000	0.000088
1736.000000	-0.000202
1734.000000	-0.000471
1732.000000	-0.000725
1730.000000	-0.000955
1728.000000	-0.001147
1726.000000	-0.001303
1724.000000	-0.001434
1722.000000	-0.001538
1720.000000	-0.001613
1718.000000	-0.001656
1716.000000	-0.001660
1714.000000	-0.001639
1712.000000	-0.001620
1710.000000	-0.001607
1708.000000	-0.001607
1706.000000	-0.001641
1704.000000	-0.001739
1702.000000	-0.001893
1700.000000	-0.002072
1698.000000	-0.002238
1696.000000	-0.002370
1694.000000	-0.002471
1692.000000	-0.002539
1690.000000	-0.002561
1688.000000	-0.002532
1686.000000	-0.002476
1684.000000	-0.002434
1682.000000	-0.002413
1680.000000	-0.002398
1678.000000	-0.002399
1676.000000	-0.002423
1674.000000	-0.002477
1672.000000	-0.002539
1670.000000	-0.002573
1668.000000	-0.002543
1666.000000	-0.002443
1664.000000	-0.002295
1662.000000	-0.002126
1660.000000	-0.001935
1658.000000	-0.001707
1656.000000	-0.001445
1654.000000	-0.001156
1652.000000	-0.000828
1650.000000	-0.000510
1648.000000	-0.000206
1646.000000	0.000110
1644.000000	0.000481
1642.000000	0.000942
1640.000000	0.001507
1638.000000	0.002193
1636.000000	0.003013
1634.000000	0.003984
1632.000000	0.005124
1630.000000	0.006460
1628.000000	0.008005
1626.000000	0.009733
1624.000000	0.011601
1622.000000	0.013544
1620.000000	0.015473
1618.000000	0.017328
1616.000000	0.019060
1614.000000	0.020563
1612.000000	0.021717
1610.000000	0.022442
1608.000000	0.022694
1606.000000	0.022487
1604.000000	0.021880
1602.000000	0.020933
1600.000000	0.019698
1598.000000	0.018257
1596.000000	0.016721
1594.000000	0.015186
1592.000000	0.013726
1590.000000	0.012396
1588.000000	0.011215
1586.000000	0.010170
1584.000000	0.009245
1582.000000	0.008444
1580.000000	0.007767
1578.000000	0.007195
1576.000000	0.006697
1574.000000	0.006227
1572.000000	0.005746
1570.000000	0.005280
1568.000000	0.004884
1566.000000	0.004564
1564.000000	0.004275
1562.000000	0.003987
1560.000000	0.003701
1558.000000	0.003447
1556.000000	0.003290
1554.000000	0.003206
1552.000000	0.003139
1550.000000	0.003051
1548.000000	0.002941
1546.000000	0.002827
1544.000000	0.002734
1542.000000	0.002689
1540.000000	0.002660
1538.000000	0.002580
1536.000000	0.002465
1534.000000	0.002353
1532.000000	0.002271
1530.000000	0.002218
1528.000000	0.002180
1526.000000	0.002148
1524.000000	0.002129
1522.000000	0.002168
1520.000000	0.002306
1518.000000	0.002498
1516.000000	0.002691
1514.000000	0.002883
1512.000000	0.003077
1510.000000	0.003268
1508.000000	0.003446
1506.000000	0.003577
1504.000000	0.003614
1502.000000	0.003606
1500.000000	0.003601
1498.000000	0.003620
1496.000000	0.003650
1494.000000	0.003665
1492.000000	0.003674
1490.000000	0.003705
1488.000000	0.003791
1486.000000	0.003906
1484.000000	0.004017
1482.000000	0.004118
1480.000000	0.004212
1478.000000	0.004310
1476.000000	0.004427
1474.000000	0.004559
1472.000000	0.004675
1470.000000	0.004772
1468.000000	0.004859
1466.000000	0.004941
1464.000000	0.005031
1462.000000	0.005139
1460.000000	0.005257
1458.000000	0.005361
1456.000000	0.005435
1454.000000	0.005488
1452.000000	0.005545
1450.000000	0.005624
1448.000000	0.005708
1446.000000	0.005771
1444.000000	0.005804
1442.000000	0.005818
1440.000000	0.005849
1438.000000	0.005929
1436.000000	0.006052
1434.000000	0.006181
1432.000000	0.006288
1430.000000	0.006389
1428.000000	0.006514
1426.000000	0.006675
1424.000000	0.006848
1422.000000	0.006995
1420.000000	0.007079
1418.000000	0.007109
1416.000000	0.007127
1414.000000	0.007151
1412.000000	0.007160
1410.000000	0.007140
1408.000000	0.007102
1406.000000	0.007063
1404.000000	0.007039
1402.000000	0.007042
1400.000000	0.007059
1398.000000	0.007086
1396.000000	0.007141
1394.000000	0.007225
1392.000000	0.007320
1390.000000	0.007426
1388.000000	0.007550
1386.000000	0.007703
1384.000000	0.007886
1382.000000	0.008079
1380.000000	0.008252
1378.000000	0.008392
1376.000000	0.008513
1374.000000	0.008618
1372.000000	0.008703
1370.000000	0.008758
1368.000000	0.008774
1366.000000	0.008758
1364.000000	0.008733
1362.000000	0.008724
1360.000000	0.008742
1358.000000	0.008791
1356.000000	0.008872
1354.000000	0.008981
1352.000000	0.009119
1350.000000	0.009294
1348.000000	0.009490
1346.000000	0.009678
1344.000000	0.009840
1342.000000	0.009974
1340.000000	0.010068
1338.000000	0.010118
1336.000000	0.010135
1334.000000	0.010129
1332.000000	0.010097
1330.000000	0.010053
1328.000000	0.010011
1326.000000	0.009969
1324.000000	0.009915
1322.000000	0.009855
1320.000000	0.009796
1318.000000	0.009716
1316.000000	0.009616
1314.000000	0.009511
1312.000000	0.009402
1310.000000	0.009285
1308.000000	0.009160
1306.000000	0.009023
1304.000000	0.008879
1302.000000	0.008748
1300.000000	0.008635
1298.000000	0.008527
1296.000000	0.008413
1294.000000	0.008295
1292.000000	0.008190
1290.000000	0.008118
1288.000000	0.008086
1286.000000	0.008078
1284.000000	0.008071
1282.000000	0.008069
1280.000000	0.008086
1278.000000	0.008129
1276.000000	0.008198
1274.000000	0.008284
1272.000000	0.008374
1270.000000	0.008466
1268.000000	0.008570
1266.000000	0.008700
1264.000000	0.008862
1262.000000	0.009042
1260.000000	0.009225
1258.000000	0.009419
1256.000000	0.009634
1254.000000	0.009869
1252.000000	0.010122
1250.000000	0.010395
1248.000000	0.010692
1246.000000	0.011032
1244.000000	0.011440
1242.000000	0.011937
1240.000000	0.012527
1238.000000	0.013220
1236.000000	0.014042
1234.000000	0.015003
1232.000000	0.016095
1230.000000	0.017325
1228.000000	0.018700
1226.000000	0.020195
1224.000000	0.021787
1222.000000	0.023472
1220.000000	0.025231
1218.000000	0.027021
1216.000000	0.028812
1214.000000	0.030578
1212.000000	0.032280
1210.000000	0.033902
1208.000000	0.035449
1206.000000	0.036906
1204.000000	0.038262
1202.000000	0.039546
1200.000000	0.040788
1198.000000	0.042019
1196.000000	0.043274
1194.000000	0.044569
1192.000000	0.045892
1190.000000	0.047238
1188.000000	0.048609
1186.000000	0.049991
1184.000000	0.051372
1182.000000	0.052738
1180.000000	0.054064
1178.000000	0.055346
1176.000000	0.056612
1174.000000	0.057894
1172.000000	0.059204
1170.000000	0.060522
1168.000000	0.061828
1166.000000	0.063118
1164.000000	0.064367
1162.000000	0.065541
1160.000000	0.066627
1158.000000	0.067608
1156.000000	0.068466
1154.000000	0.069223
1152.000000	0.069918
1150.000000	0.070562
1148.000000	0.071168
1146.000000	0.071762
1144.000000	0.072353
1142.000000	0.072918
1140.000000	0.073446
1138.000000	0.073932
1136.000000	0.074368
1134.000000	0.074749
1132.000000	0.075075
1130.000000	0.075334
1128.000000	0.075501
1126.000000	0.075566
1124.000000	0.075540
1122.000000	0.075442
1120.000000	0.075291
1118.000000	0.075085
1116.000000	0.074830
1114.000000	0.074563
1112.000000	0.074324
1110.000000	0.074123
1108.000000	0.073963
1106.000000	0.073846
1104.000000	0.073773
1102.000000	0.073782
1100.000000	0.073937
1098.000000	0.074261
1096.000000	0.074752
1094.000000	0.075439
1092.000000	0.076352
1090.000000	0.077476
1088.000000	0.078762
1086.000000	0.080117
1084.000000	0.081395
1082.000000	0.082477
1080.000000	0.083293
1078.000000	0.083761
1076.000000	0.083811
1074.000000	0.083412
1072.000000	0.082557
1070.000000	0.081264
1068.000000	0.079578
1066.000000	0.077571
1064.000000	0.075303
1062.000000	0.072843
1060.000000	0.070280
1058.000000	0.067666
1056.000000	0.065044
1054.000000	0.062472
1052.000000	0.060004
1050.000000	0.057662
1048.000000	0.055440
1046.000000	0.053337
1044.000000	0.051346
1042.000000	0.049464
1040.000000	0.047717
1038.000000	0.046112
1036.000000	0.044633
1034.000000	0.043271
1032.000000	0.042046
1030.000000	0.040995
1028.000000	0.040124
1026.000000	0.039416
1024.000000	0.038844
1022.000000	0.038375
1020.000000	0.037975
1018.000000	0.037624
1016.000000	0.037291
1014.000000	0.036923
1012.000000	0.036470
1010.000000	0.035901
1008.000000	0.035208
1006.000000	0.034399
1004.000000	0.033489
1002.000000	0.032498
1000.000000	0.031456
998.000000	0.030381
996.000000	0.029292
994.000000	0.028214
992.000000	0.027164
990.000000	0.026145
988.000000	0.025152
986.000000	0.024172
984.000000	0.023192
982.000000	0.022219
980.000000	0.021269
978.000000	0.020354
976.000000	0.019483
974.000000	0.018670
972.000000	0.017915
970.000000	0.017221
968.000000	0.016599
966.000000	0.016038
964.000000	0.015510
962.000000	0.014988
960.000000	0.014457
958.000000	0.013917
956.000000	0.013358
954.000000	0.012775
952.000000	0.012160
950.000000	0.011503
948.000000	0.010817
946.000000	0.010128
944.000000	0.009427
942.000000	0.008670
940.000000	0.007836
938.000000	0.006939
936.000000	0.006005
934.000000	0.005057
932.000000	0.004099
930.000000	0.003119
928.000000	0.002116
926.000000	0.001118
924.000000	0.000171
922.000000	-0.000705
920.000000	-0.001540
918.000000	-0.002375
916.000000	-0.003237
914.000000	-0.004138
912.000000	-0.005078
910.000000	-0.006031
908.000000	-0.006978
906.000000	-0.007920
904.000000	-0.008835
902.000000	-0.009675
900.000000	-0.010394
898.000000	-0.010955
896.000000	-0.011348
894.000000	-0.011593
892.000000	-0.011726
890.000000	-0.011783
888.000000	-0.011799
886.000000	-0.011825
884.000000	-0.011914
882.000000	-0.012080
880.000000	-0.012313
878.000000	-0.012616
876.000000	-0.012994
874.000000	-0.013442
872.000000	-0.013924
870.000000	-0.014376
868.000000	-0.014760
866.000000	-0.015111
864.000000	-0.015464
862.000000	-0.015805
860.000000	-0.016099
858.000000	-0.016336
856.000000	-0.016539
854.000000	-0.016751
852.000000	-0.016994
850.000000	-0.017254
848.000000	-0.017510
846.000000	-0.017765
844.000000	-0.018035
842.000000	-0.018328
840.000000	-0.018643
838.000000	-0.018975
836.000000	-0.019324
834.000000	-0.019718
832.000000	-0.020159
830.000000	-0.020622
828.000000	-0.021118
826.000000	-0.021683
824.000000	-0.022313
822.000000	-0.022984
820.000000	-0.023706
818.000000	-0.024464
816.000000	-0.025221
814.000000	-0.025983
812.000000	-0.026767
810.000000	-0.027560
808.000000	-0.028350
806.000000	-0.029145
804.000000	-0.029926
802.000000	-0.030690
800.000000	-0.031478
798.000000	-0.032291
796.000000	-0.033106
794.000000	-0.033924
792.000000	-0.034743
790.000000	-0.035541
788.000000	-0.036309
786.000000	-0.037058
784.000000	-0.037769
782.000000	-0.038389
780.000000	-0.038891
778.000000	-0.039267
776.000000	-0.039500
774.000000	-0.039598
772.000000	-0.039594
770.000000	-0.039482
768.000000	-0.039245
766.000000	-0.038910
764.000000	-0.038515
762.000000	-0.038082
760.000000	-0.037655
758.000000	-0.037284
756.000000	-0.036999
754.000000	-0.036813
752.000000	-0.036742
750.000000	-0.036819
748.000000	-0.037062
746.000000	-0.037466
744.000000	-0.037983
742.000000	-0.038535
740.000000	-0.039079
738.000000	-0.039618
736.000000	-0.040121
734.000000	-0.040516
732.000000	-0.040788
730.000000	-0.040995
728.000000	-0.041226
726.000000	-0.041597
724.000000	-0.042187
722.000000	-0.042999
720.000000	-0.043991
718.000000	-0.045111
716.000000	-0.046289
714.000000	-0.047354
712.000000	-0.048067
710.000000	-0.048150
708.000000	-0.047350
706.000000	-0.045526
704.000000	-0.042765
702.000000	-0.039424
700.000000	-0.035842
