PE IR       SUBTECH     SPECTRUM    ASCII       PEDS        4.00        
   -1
LS_8.asc
14/09/24
10:00:58.00
14/09/26
10:44:50.00
nystrom.12
Co-added spectrum 3 at 1428, -2292 (Image Marker 1)
700.000000
#HDR
-1
-1
#GR
cm-1
A
1.0
0.0
4000.000000
-2.000000
1651
8
0.096945
-0.000529
#DATA
4000.000000	0.001304
3998.000000	0.001110
3996.000000	0.000885
3994.000000	0.000660
3992.000000	0.000442
3990.000000	0.000236
3988.000000	0.000105
3986.000000	0.000059
3984.000000	0.000019
3982.000000	-0.000029
3980.000000	-0.000039
3978.000000	0.000000
3976.000000	0.000086
3974.000000	0.000164
3972.000000	0.000172
3970.000000	0.000107
3968.000000	0.000034
3966.000000	0.000008
3964.000000	0.000023
3962.000000	0.000044
3960.000000	0.000070
3958.000000	0.000149
3956.000000	0.000312
3954.000000	0.000512
3952.000000	0.000690
3950.000000	0.000829
3948.000000	0.000930
3946.000000	0.001004
3944.000000	0.001089
3942.000000	0.001180
3940.000000	0.001211
3938.000000	0.001185
3936.000000	0.001166
3934.000000	0.001207
3932.000000	0.001304
3930.000000	0.001404
3928.000000	0.001447
3926.000000	0.001407
3924.000000	0.001342
3922.000000	0.001316
3920.000000	0.001324
3918.000000	0.001348
3916.000000	0.001364
3914.000000	0.001357
3912.000000	0.001359
3910.000000	0.001396
3908.000000	0.001446
3906.000000	0.001475
3904.000000	0.001484
3902.000000	0.001466
3900.000000	0.001390
3898.000000	0.001254
3896.000000	0.001097
3894.000000	0.000972
3892.000000	0.000912
3890.000000	0.000893
3888.000000	0.000873
3886.000000	0.000859
3884.000000	0.000894
3882.000000	0.001014
3880.000000	0.001193
3878.000000	0.001385
3876.000000	0.001569
3874.000000	0.001761
3872.000000	0.001961
3870.000000	0.002164
3868.000000	0.002394
3866.000000	0.002631
3864.000000	0.002840
3862.000000	0.003029
3860.000000	0.003200
3858.000000	0.003349
3856.000000	0.003493
3854.000000	0.003589
3852.000000	0.003529
3850.000000	0.003335
3848.000000	0.003108
3846.000000	0.002889
3844.000000	0.002693
3842.000000	0.002483
3840.000000	0.002221
3838.000000	0.001979
3836.000000	0.001910
3834.000000	0.001987
3832.000000	0.002114
3830.000000	0.002269
3828.000000	0.002412
3826.000000	0.002546
3824.000000	0.002723
3822.000000	0.002924
3820.000000	0.003082
3818.000000	0.003181
3816.000000	0.003246
3814.000000	0.003286
3812.000000	0.003274
3810.000000	0.003206
3808.000000	0.003112
3806.000000	0.003035
3804.000000	0.002983
3802.000000	0.002981
3800.000000	0.003083
3798.000000	0.003229
3796.000000	0.003364
3794.000000	0.003526
3792.000000	0.003710
3790.000000	0.003832
3788.000000	0.003852
3786.000000	0.003779
3784.000000	0.003618
3782.000000	0.003407
3780.000000	0.003205
3778.000000	0.003029
3776.000000	0.002888
3774.000000	0.002836
3772.000000	0.002928
3770.000000	0.003150
3768.000000	0.003436
3766.000000	0.003755
3764.000000	0.004118
3762.000000	0.004532
3760.000000	0.005001
3758.000000	0.005500
3756.000000	0.005963
3754.000000	0.006356
3752.000000	0.006703
3750.000000	0.007025
3748.000000	0.007259
3746.000000	0.007331
3744.000000	0.007210
3742.000000	0.006907
3740.000000	0.006493
3738.000000	0.006062
3736.000000	0.005693
3734.000000	0.005421
3732.000000	0.005231
3730.000000	0.005113
3728.000000	0.005079
3726.000000	0.005129
3724.000000	0.005262
3722.000000	0.005429
3720.000000	0.005511
3718.000000	0.005451
3716.000000	0.005309
3714.000000	0.005156
3712.000000	0.005040
3710.000000	0.004974
3708.000000	0.004921
3706.000000	0.004883
3704.000000	0.004915
3702.000000	0.005030
3700.000000	0.005193
3698.000000	0.005361
3696.000000	0.005515
3694.000000	0.005653
3692.000000	0.005793
3690.000000	0.005923
3688.000000	0.005988
3686.000000	0.006001
3684.000000	0.005990
3682.000000	0.005960
3680.000000	0.005926
3678.000000	0.005883
3676.000000	0.005833
3674.000000	0.005817
3672.000000	0.005835
3670.000000	0.005861
3668.000000	0.005911
3666.000000	0.006020
3664.000000	0.006190
3662.000000	0.006426
3660.000000	0.006735
3658.000000	0.007105
3656.000000	0.007538
3654.000000	0.008048
3652.000000	0.008631
3650.000000	0.009271
3648.000000	0.009950
3646.000000	0.010689
3644.000000	0.011469
3642.000000	0.012263
3640.000000	0.013048
3638.000000	0.013827
3636.000000	0.014626
3634.000000	0.015445
3632.000000	0.016268
3630.000000	0.017087
3628.000000	0.017889
3626.000000	0.018640
3624.000000	0.019372
3622.000000	0.020117
3620.000000	0.020834
3618.000000	0.021464
3616.000000	0.022019
3614.000000	0.022501
3612.000000	0.022898
3610.000000	0.023251
3608.000000	0.023590
3606.000000	0.023869
3604.000000	0.024067
3602.000000	0.024216
3600.000000	0.024368
3598.000000	0.024552
3596.000000	0.024772
3594.000000	0.025013
3592.000000	0.025224
3590.000000	0.025387
3588.000000	0.025566
3586.000000	0.025830
3584.000000	0.026152
3582.000000	0.026481
3580.000000	0.026814
3578.000000	0.027165
3576.000000	0.027561
3574.000000	0.028036
3572.000000	0.028545
3570.000000	0.029014
3568.000000	0.029437
3566.000000	0.029836
3564.000000	0.030212
3562.000000	0.030589
3560.000000	0.030983
3558.000000	0.031357
3556.000000	0.031692
3554.000000	0.032032
3552.000000	0.032394
3550.000000	0.032749
3548.000000	0.033110
3546.000000	0.033479
3544.000000	0.033814
3542.000000	0.034111
3540.000000	0.034406
3538.000000	0.034722
3536.000000	0.035081
3534.000000	0.035513
3532.000000	0.036003
3530.000000	0.036491
3528.000000	0.036955
3526.000000	0.037435
3524.000000	0.037979
3522.000000	0.038567
3520.000000	0.039122
3518.000000	0.039593
3516.000000	0.039993
3514.000000	0.040370
3512.000000	0.040751
3510.000000	0.041154
3508.000000	0.041559
3506.000000	0.041924
3504.000000	0.042257
3502.000000	0.042600
3500.000000	0.042965
3498.000000	0.043364
3496.000000	0.043824
3494.000000	0.044324
3492.000000	0.044811
3490.000000	0.045282
3488.000000	0.045779
3486.000000	0.046321
3484.000000	0.046877
3482.000000	0.047398
3480.000000	0.047858
3478.000000	0.048273
3476.000000	0.048678
3474.000000	0.049068
3472.000000	0.049383
3470.000000	0.049579
3468.000000	0.049684
3466.000000	0.049729
3464.000000	0.049694
3462.000000	0.049537
3460.000000	0.049245
3458.000000	0.048849
3456.000000	0.048416
3454.000000	0.048017
3452.000000	0.047643
3450.000000	0.047246
3448.000000	0.046821
3446.000000	0.046404
3444.000000	0.046032
3442.000000	0.045705
3440.000000	0.045374
3438.000000	0.044946
3436.000000	0.044392
3434.000000	0.043776
3432.000000	0.043154
3430.000000	0.042514
3428.000000	0.041812
3426.000000	0.041016
3424.000000	0.040155
3422.000000	0.039316
3420.000000	0.038552
3418.000000	0.037821
3416.000000	0.037074
3414.000000	0.036335
3412.000000	0.035650
3410.000000	0.035029
3408.000000	0.034456
3406.000000	0.033924
3404.000000	0.033438
3402.000000	0.033019
3400.000000	0.032688
3398.000000	0.032409
3396.000000	0.032134
3394.000000	0.031868
3392.000000	0.031638
3390.000000	0.031430
3388.000000	0.031218
3386.000000	0.030990
3384.000000	0.030726
3382.000000	0.030431
3380.000000	0.030144
3378.000000	0.029870
3376.000000	0.029578
3374.000000	0.029260
3372.000000	0.028918
3370.000000	0.028529
3368.000000	0.028104
3366.000000	0.027698
3364.000000	0.027332
3362.000000	0.026999
3360.000000	0.026717
3358.000000	0.026498
3356.000000	0.026345
3354.000000	0.026257
3352.000000	0.026228
3350.000000	0.026220
3348.000000	0.026180
3346.000000	0.026095
3344.000000	0.025974
3342.000000	0.025813
3340.000000	0.025598
3338.000000	0.025323
3336.000000	0.025021
3334.000000	0.024736
3332.000000	0.024472
3330.000000	0.024212
3328.000000	0.023968
3326.000000	0.023755
3324.000000	0.023598
3322.000000	0.023507
3320.000000	0.023460
3318.000000	0.023438
3316.000000	0.023442
3314.000000	0.023482
3312.000000	0.023540
3310.000000	0.023581
3308.000000	0.023576
3306.000000	0.023511
3304.000000	0.023391
3302.000000	0.023222
3300.000000	0.023003
3298.000000	0.022738
3296.000000	0.022440
3294.000000	0.022127
3292.000000	0.021829
3290.000000	0.021565
3288.000000	0.021321
3286.000000	0.021088
3284.000000	0.020862
3282.000000	0.020635
3280.000000	0.020405
3278.000000	0.020184
3276.000000	0.019971
3274.000000	0.019747
3272.000000	0.019519
3270.000000	0.019335
3268.000000	0.019228
3266.000000	0.019187
3264.000000	0.019192
3262.000000	0.019220
3260.000000	0.019238
3258.000000	0.019252
3256.000000	0.019292
3254.000000	0.019344
3252.000000	0.019341
3250.000000	0.019252
3248.000000	0.019113
3246.000000	0.018973
3244.000000	0.018858
3242.000000	0.018759
3240.000000	0.018645
3238.000000	0.018502
3236.000000	0.018369
3234.000000	0.018278
3232.000000	0.018200
3230.000000	0.018087
3228.000000	0.017935
3226.000000	0.017759
3224.000000	0.017566
3222.000000	0.017346
3220.000000	0.017093
3218.000000	0.016822
3216.000000	0.016537
3214.000000	0.016258
3212.000000	0.016002
3210.000000	0.015759
3208.000000	0.015526
3206.000000	0.015319
3204.000000	0.015136
3202.000000	0.014958
3200.000000	0.014783
3198.000000	0.014628
3196.000000	0.014504
3194.000000	0.014406
3192.000000	0.014334
3190.000000	0.014278
3188.000000	0.014227
3186.000000	0.014176
3184.000000	0.014109
3182.000000	0.013996
3180.000000	0.013826
3178.000000	0.013604
3176.000000	0.013321
3174.000000	0.012981
3172.000000	0.012603
3170.000000	0.012194
3168.000000	0.011779
3166.000000	0.011401
3164.000000	0.011092
3162.000000	0.010860
3160.000000	0.010690
3158.000000	0.010582
3156.000000	0.010554
3154.000000	0.010587
3152.000000	0.010633
3150.000000	0.010651
3148.000000	0.010624
3146.000000	0.010546
3144.000000	0.010434
3142.000000	0.010294
3140.000000	0.010116
3138.000000	0.009908
3136.000000	0.009701
3134.000000	0.009516
3132.000000	0.009366
3130.000000	0.009267
3128.000000	0.009201
3126.000000	0.009135
3124.000000	0.009076
3122.000000	0.009037
3120.000000	0.009004
3118.000000	0.008974
3116.000000	0.008954
3114.000000	0.008935
3112.000000	0.008918
3110.000000	0.008930
3108.000000	0.008986
3106.000000	0.009066
3104.000000	0.009162
3102.000000	0.009278
3100.000000	0.009383
3098.000000	0.009431
3096.000000	0.009398
3094.000000	0.009283
3092.000000	0.009087
3090.000000	0.008824
3088.000000	0.008516
3086.000000	0.008174
3084.000000	0.007835
3082.000000	0.007560
3080.000000	0.007385
3078.000000	0.007308
3076.000000	0.007305
3074.000000	0.007361
3072.000000	0.007465
3070.000000	0.007602
3068.000000	0.007748
3066.000000	0.007874
3064.000000	0.007952
3062.000000	0.007969
3060.000000	0.007942
3058.000000	0.007878
3056.000000	0.007772
3054.000000	0.007641
3052.000000	0.007502
3050.000000	0.007356
3048.000000	0.007211
3046.000000	0.007091
3044.000000	0.007013
3042.000000	0.006981
3040.000000	0.006982
3038.000000	0.006984
3036.000000	0.006960
3034.000000	0.006905
3032.000000	0.006842
3030.000000	0.006780
3028.000000	0.006693
3026.000000	0.006570
3024.000000	0.006422
3022.000000	0.006253
3020.000000	0.006078
3018.000000	0.005920
3016.000000	0.005757
3014.000000	0.005556
3012.000000	0.005354
3010.000000	0.005196
3008.000000	0.005066
3006.000000	0.004962
3004.000000	0.004918
3002.000000	0.004931
3000.000000	0.004996
2998.000000	0.005130
2996.000000	0.005298
2994.000000	0.005443
2992.000000	0.005568
2990.000000	0.005688
2988.000000	0.005787
2986.000000	0.005856
2984.000000	0.005899
2982.000000	0.005918
2980.000000	0.005916
2978.000000	0.005894
2976.000000	0.005843
2974.000000	0.005773
2972.000000	0.005702
2970.000000	0.005627
2968.000000	0.005559
2966.000000	0.005505
2964.000000	0.005445
2962.000000	0.005367
2960.000000	0.005270
2958.000000	0.005169
2956.000000	0.005081
2954.000000	0.005014
2952.000000	0.004947
2950.000000	0.004860
2948.000000	0.004803
2946.000000	0.004833
2944.000000	0.004922
2942.000000	0.005004
2940.000000	0.005043
2938.000000	0.005031
2936.000000	0.005005
2934.000000	0.005012
2932.000000	0.005033
2930.000000	0.005005
2928.000000	0.004938
2926.000000	0.004910
2924.000000	0.004969
2922.000000	0.005095
2920.000000	0.005238
2918.000000	0.005342
2916.000000	0.005378
2914.000000	0.005354
2912.000000	0.005300
2910.000000	0.005216
2908.000000	0.005070
2906.000000	0.004863
2904.000000	0.004652
2902.000000	0.004482
2900.000000	0.004348
2898.000000	0.004248
2896.000000	0.004196
2894.000000	0.004184
2892.000000	0.004202
2890.000000	0.004247
2888.000000	0.004302
2886.000000	0.004349
2884.000000	0.004409
2882.000000	0.004498
2880.000000	0.004597
2878.000000	0.004692
2876.000000	0.004793
2874.000000	0.004890
2872.000000	0.004977
2870.000000	0.005064
2868.000000	0.005132
2866.000000	0.005139
2864.000000	0.005098
2862.000000	0.005042
2860.000000	0.004972
2858.000000	0.004902
2856.000000	0.004853
2854.000000	0.004814
2852.000000	0.004796
2850.000000	0.004827
2848.000000	0.004899
2846.000000	0.004984
2844.000000	0.005063
2842.000000	0.005137
2840.000000	0.005210
2838.000000	0.005280
2836.000000	0.005335
2834.000000	0.005337
2832.000000	0.005278
2830.000000	0.005188
2828.000000	0.005091
2826.000000	0.004992
2824.000000	0.004875
2822.000000	0.004746
2820.000000	0.004643
2818.000000	0.004599
2816.000000	0.004629
2814.000000	0.004725
2812.000000	0.004851
2810.000000	0.004968
2808.000000	0.005077
2806.000000	0.005199
2804.000000	0.005313
2802.000000	0.005383
2800.000000	0.005421
2798.000000	0.005455
2796.000000	0.005515
2794.000000	0.005627
2792.000000	0.005791
2790.000000	0.005975
2788.000000	0.006168
2786.000000	0.006376
2784.000000	0.006580
2782.000000	0.006741
2780.000000	0.006834
2778.000000	0.006863
2776.000000	0.006860
2774.000000	0.006851
2772.000000	0.006835
2770.000000	0.006802
2768.000000	0.006776
2766.000000	0.006795
2764.000000	0.006867
2762.000000	0.006954
2760.000000	0.007003
2758.000000	0.007003
2756.000000	0.006992
2754.000000	0.007001
2752.000000	0.007007
2750.000000	0.006973
2748.000000	0.006908
2746.000000	0.006864
2744.000000	0.006883
2742.000000	0.006966
2740.000000	0.007079
2738.000000	0.007200
2736.000000	0.007345
2734.000000	0.007549
2732.000000	0.007807
2730.000000	0.008069
2728.000000	0.008311
2726.000000	0.008544
2724.000000	0.008783
2722.000000	0.009023
2720.000000	0.009231
2718.000000	0.009360
2716.000000	0.009409
2714.000000	0.009422
2712.000000	0.009420
2710.000000	0.009389
2708.000000	0.009311
2706.000000	0.009185
2704.000000	0.009050
2702.000000	0.008968
2700.000000	0.008956
2698.000000	0.008979
2696.000000	0.009020
2694.000000	0.009096
2692.000000	0.009224
2690.000000	0.009410
2688.000000	0.009637
2686.000000	0.009869
2684.000000	0.010081
2682.000000	0.010273
2680.000000	0.010463
2678.000000	0.010642
2676.000000	0.010776
2674.000000	0.010852
2672.000000	0.010878
2670.000000	0.010866
2668.000000	0.010832
2666.000000	0.010794
2664.000000	0.010758
2662.000000	0.010715
2660.000000	0.010685
2658.000000	0.010692
2656.000000	0.010746
2654.000000	0.010838
2652.000000	0.010939
2650.000000	0.011016
2648.000000	0.011053
2646.000000	0.011061
2644.000000	0.011049
2642.000000	0.011002
2640.000000	0.010912
2638.000000	0.010793
2636.000000	0.010666
2634.000000	0.010563
2632.000000	0.010535
2630.000000	0.010595
2628.000000	0.010703
2626.000000	0.010842
2624.000000	0.011026
2622.000000	0.011225
2620.000000	0.011394
2618.000000	0.011518
2616.000000	0.011584
2614.000000	0.011587
2612.000000	0.011564
2610.000000	0.011550
2608.000000	0.011524
2606.000000	0.011475
2604.000000	0.011442
2602.000000	0.011465
2600.000000	0.011557
2598.000000	0.011689
2596.000000	0.011808
2594.000000	0.011863
2592.000000	0.011856
2590.000000	0.011837
2588.000000	0.011831
2586.000000	0.011824
2584.000000	0.011785
2582.000000	0.011714
2580.000000	0.011660
2578.000000	0.011661
2576.000000	0.011709
2574.000000	0.011774
2572.000000	0.011825
2570.000000	0.011852
2568.000000	0.011861
2566.000000	0.011871
2564.000000	0.011897
2562.000000	0.011919
2560.000000	0.011923
2558.000000	0.011938
2556.000000	0.011982
2554.000000	0.012050
2552.000000	0.012131
2550.000000	0.012210
2548.000000	0.012249
2546.000000	0.012229
2544.000000	0.012184
2542.000000	0.012142
2540.000000	0.012098
2538.000000	0.012038
2536.000000	0.011963
2534.000000	0.011906
2532.000000	0.011909
2530.000000	0.011981
2528.000000	0.012090
2526.000000	0.012205
2524.000000	0.012330
2522.000000	0.012473
2520.000000	0.012612
2518.000000	0.012718
2516.000000	0.012777
2514.000000	0.012801
2512.000000	0.012804
2510.000000	0.012792
2508.000000	0.012762
2506.000000	0.012714
2504.000000	0.012673
2502.000000	0.012664
2500.000000	0.012670
2498.000000	0.012661
2496.000000	0.012636
2494.000000	0.012604
2492.000000	0.012557
2490.000000	0.012495
2488.000000	0.012422
2486.000000	0.012328
2484.000000	0.012215
2482.000000	0.012111
2480.000000	0.012021
2478.000000	0.011923
2476.000000	0.011810
2474.000000	0.011693
2472.000000	0.011570
2470.000000	0.011443
2468.000000	0.011316
2466.000000	0.011172
2464.000000	0.011010
2462.000000	0.010867
2460.000000	0.010776
2458.000000	0.010741
2456.000000	0.010747
2454.000000	0.010775
2452.000000	0.010809
2450.000000	0.010865
2448.000000	0.010953
2446.000000	0.011044
2444.000000	0.011109
2442.000000	0.011141
2440.000000	0.011136
2438.000000	0.011104
2436.000000	0.011058
2434.000000	0.010989
2432.000000	0.010893
2430.000000	0.010790
2428.000000	0.010674
2426.000000	0.010523
2424.000000	0.010341
2422.000000	0.010160
2420.000000	0.010015
2418.000000	0.009921
2416.000000	0.009868
2414.000000	0.009846
2412.000000	0.009873
2410.000000	0.009966
2408.000000	0.010098
2406.000000	0.010212
2404.000000	0.010266
2402.000000	0.010276
2400.000000	0.010271
2398.000000	0.010247
2396.000000	0.010168
2394.000000	0.010010
2392.000000	0.009801
2390.000000	0.009607
2388.000000	0.009459
2386.000000	0.009311
2384.000000	0.009062
2382.000000	0.008636
2380.000000	0.008073
2378.000000	0.007501
2376.000000	0.006986
2374.000000	0.006496
2372.000000	0.005987
2370.000000	0.005468
2368.000000	0.005005
2366.000000	0.004759
2364.000000	0.004837
2362.000000	0.005085
2360.000000	0.005325
2358.000000	0.005532
2356.000000	0.005742
2354.000000	0.005963
2352.000000	0.006201
2350.000000	0.006431
2348.000000	0.006580
2346.000000	0.006623
2344.000000	0.006600
2342.000000	0.006530
2340.000000	0.006406
2338.000000	0.006251
2336.000000	0.006130
2334.000000	0.006019
2332.000000	0.005862
2330.000000	0.005672
2328.000000	0.005489
2326.000000	0.005371
2324.000000	0.005351
2322.000000	0.005422
2320.000000	0.005537
2318.000000	0.005651
2316.000000	0.005779
2314.000000	0.005963
2312.000000	0.006212
2310.000000	0.006502
2308.000000	0.006796
2306.000000	0.007051
2304.000000	0.007250
2302.000000	0.007405
2300.000000	0.007509
2298.000000	0.007538
2296.000000	0.007484
2294.000000	0.007341
2292.000000	0.007108
2290.000000	0.006823
2288.000000	0.006545
2286.000000	0.006296
2284.000000	0.006076
2282.000000	0.005897
2280.000000	0.005772
2278.000000	0.005700
2276.000000	0.005672
2274.000000	0.005684
2272.000000	0.005722
2270.000000	0.005746
2268.000000	0.005719
2266.000000	0.005640
2264.000000	0.005528
2262.000000	0.005382
2260.000000	0.005205
2258.000000	0.005014
2256.000000	0.004821
2254.000000	0.004642
2252.000000	0.004515
2250.000000	0.004464
2248.000000	0.004472
2246.000000	0.004507
2244.000000	0.004548
2242.000000	0.004586
2240.000000	0.004627
2238.000000	0.004653
2236.000000	0.004640
2234.000000	0.004579
2232.000000	0.004471
2230.000000	0.004335
2228.000000	0.004202
2226.000000	0.004097
2224.000000	0.004020
2222.000000	0.003955
2220.000000	0.003896
2218.000000	0.003843
2216.000000	0.003797
2214.000000	0.003756
2212.000000	0.003716
2210.000000	0.003678
2208.000000	0.003646
2206.000000	0.003629
2204.000000	0.003639
2202.000000	0.003671
2200.000000	0.003724
2198.000000	0.003797
2196.000000	0.003883
2194.000000	0.003966
2192.000000	0.004019
2190.000000	0.004024
2188.000000	0.003973
2186.000000	0.003875
2184.000000	0.003742
2182.000000	0.003593
2180.000000	0.003443
2178.000000	0.003301
2176.000000	0.003177
2174.000000	0.003093
2172.000000	0.003059
2170.000000	0.003077
2168.000000	0.003132
2166.000000	0.003211
2164.000000	0.003292
2162.000000	0.003364
2160.000000	0.003422
2158.000000	0.003445
2156.000000	0.003417
2154.000000	0.003348
2152.000000	0.003254
2150.000000	0.003144
2148.000000	0.003024
2146.000000	0.002896
2144.000000	0.002763
2142.000000	0.002645
2140.000000	0.002551
2138.000000	0.002466
2136.000000	0.002390
2134.000000	0.002332
2132.000000	0.002278
2130.000000	0.002219
2128.000000	0.002164
2126.000000	0.002122
2124.000000	0.002089
2122.000000	0.002071
2120.000000	0.002067
2118.000000	0.002056
2116.000000	0.002025
2114.000000	0.001986
2112.000000	0.001941
2110.000000	0.001879
2108.000000	0.001785
2106.000000	0.001653
2104.000000	0.001502
2102.000000	0.001350
2100.000000	0.001205
2098.000000	0.001076
2096.000000	0.000980
2094.000000	0.000916
2092.000000	0.000871
2090.000000	0.000834
2088.000000	0.000796
2086.000000	0.000756
2084.000000	0.000729
2082.000000	0.000715
2080.000000	0.000693
2078.000000	0.000652
2076.000000	0.000595
2074.000000	0.000531
2072.000000	0.000469
2070.000000	0.000411
2068.000000	0.000351
2066.000000	0.000284
2064.000000	0.000216
2062.000000	0.000171
2060.000000	0.000160
2058.000000	0.000173
2056.000000	0.000209
2054.000000	0.000263
2052.000000	0.000316
2050.000000	0.000361
2048.000000	0.000391
2046.000000	0.000387
2044.000000	0.000329
2042.000000	0.000223
2040.000000	0.000084
2038.000000	-0.000066
2036.000000	-0.000206
2034.000000	-0.000321
2032.000000	-0.000412
2030.000000	-0.000483
2028.000000	-0.000526
2026.000000	-0.000529
2024.000000	-0.000497
2022.000000	-0.000441
2020.000000	-0.000371
2018.000000	-0.000303
2016.000000	-0.000250
2014.000000	-0.000203
2012.000000	-0.000149
2010.000000	-0.000096
2008.000000	-0.000055
2006.000000	-0.000027
2004.000000	-0.000031
2002.000000	-0.000019
2000.000000	0.000003
1998.000000	0.000015
1996.000000	0.000001
1994.000000	-0.000016
1992.000000	-0.000015
1990.000000	-0.000004
1988.000000	0.000005
1986.000000	-0.000013
1984.000000	-0.000075
1982.000000	-0.000155
1980.000000	-0.000216
1978.000000	-0.000255
1976.000000	-0.000297
1974.000000	-0.000357
1972.000000	-0.000417
1970.000000	-0.000445
1968.000000	-0.000424
1966.000000	-0.000365
1964.000000	-0.000299
1962.000000	-0.000244
1960.000000	-0.000184
1958.000000	-0.000097
1956.000000	0.000006
1954.000000	0.000089
1952.000000	0.000143
1950.000000	0.000181
1948.000000	0.000216
1946.000000	0.000256
1944.000000	0.000281
1942.000000	0.000268
1940.000000	0.000237
1938.000000	0.000239
1936.000000	0.000290
1934.000000	0.000370
1932.000000	0.000461
1930.000000	0.000564
1928.000000	0.000686
1926.000000	0.000847
1924.000000	0.001038
1922.000000	0.001219
1920.000000	0.001366
1918.000000	0.001492
1916.000000	0.001622
1914.000000	0.001749
1912.000000	0.001865
1910.000000	0.001972
1908.000000	0.002073
1906.000000	0.002160
1904.000000	0.002227
1902.000000	0.002268
1900.000000	0.002281
1898.000000	0.002277
1896.000000	0.002272
1894.000000	0.002261
1892.000000	0.002236
1890.000000	0.002209
1888.000000	0.002209
1886.000000	0.002252
1884.000000	0.002341
1882.000000	0.002467
1880.000000	0.002621
1878.000000	0.002793
1876.000000	0.002972
1874.000000	0.003160
1872.000000	0.003351
1870.000000	0.003525
1868.000000	0.003664
1866.000000	0.003767
1864.000000	0.003845
1862.000000	0.003917
1860.000000	0.004007
1858.000000	0.004112
1856.000000	0.004200
1854.000000	0.004278
1852.000000	0.004380
1850.000000	0.004516
1848.000000	0.004678
1846.000000	0.004860
1844.000000	0.005043
1842.000000	0.005214
1840.000000	0.005388
1838.000000	0.005565
1836.000000	0.005724
1834.000000	0.005849
1832.000000	0.005940
1830.000000	0.005988
1828.000000	0.006000
1826.000000	0.005998
1824.000000	0.006000
1822.000000	0.006016
1820.000000	0.006064
1818.000000	0.006153
1816.000000	0.006285
1814.000000	0.006460
1812.000000	0.006676
1810.000000	0.006913
1808.000000	0.007154
1806.000000	0.007387
1804.000000	0.007605
1802.000000	0.007808
1800.000000	0.007988
1798.000000	0.008132
1796.000000	0.008252
1794.000000	0.008362
1792.000000	0.008470
1790.000000	0.008583
1788.000000	0.008700
1786.000000	0.008817
1784.000000	0.008932
1782.000000	0.009042
1780.000000	0.009129
1778.000000	0.009188
1776.000000	0.009228
1774.000000	0.009248
1772.000000	0.009238
1770.000000	0.009207
1768.000000	0.009183
1766.000000	0.009196
1764.000000	0.009263
1762.000000	0.009390
1760.000000	0.009566
1758.000000	0.009769
1756.000000	0.010002
1754.000000	0.010267
1752.000000	0.010543
1750.000000	0.010798
1748.000000	0.011003
1746.000000	0.011162
1744.000000	0.011281
1742.000000	0.011370
1740.000000	0.011431
1738.000000	0.011456
1736.000000	0.011447
1734.000000	0.011408
1732.000000	0.011344
1730.000000	0.011262
1728.000000	0.011174
1726.000000	0.011103
1724.000000	0.011071
1722.000000	0.011089
1720.000000	0.011139
1718.000000	0.011192
1716.000000	0.011265
1714.000000	0.011385
1712.000000	0.011518
1710.000000	0.011638
1708.000000	0.011718
1706.000000	0.011731
1704.000000	0.011705
1702.000000	0.011716
1700.000000	0.011790
1698.000000	0.011913
1696.000000	0.012073
1694.000000	0.012266
1692.000000	0.012505
1690.000000	0.012807
1688.000000	0.013152
1686.000000	0.013481
1684.000000	0.013725
1682.000000	0.013866
1680.000000	0.013955
1678.000000	0.014009
1676.000000	0.014024
1674.000000	0.013988
1672.000000	0.013915
1670.000000	0.013843
1668.000000	0.013807
1666.000000	0.013839
1664.000000	0.013933
1662.000000	0.014081
1660.000000	0.014285
1658.000000	0.014551
1656.000000	0.014880
1654.000000	0.015255
1652.000000	0.015642
1650.000000	0.016067
1648.000000	0.016539
1646.000000	0.017025
1644.000000	0.017520
1642.000000	0.018077
1640.000000	0.018729
1638.000000	0.019499
1636.000000	0.020431
1634.000000	0.021558
1632.000000	0.022899
1630.000000	0.024486
1628.000000	0.026330
1626.000000	0.028377
1624.000000	0.030561
1622.000000	0.032803
1620.000000	0.034976
1618.000000	0.036971
1616.000000	0.038672
1614.000000	0.039943
1612.000000	0.040711
1610.000000	0.040944
1608.000000	0.040632
1606.000000	0.039811
1604.000000	0.038575
1602.000000	0.037022
1600.000000	0.035254
1598.000000	0.033401
1596.000000	0.031567
1594.000000	0.029815
1592.000000	0.028194
1590.000000	0.026743
1588.000000	0.025491
1586.000000	0.024448
1584.000000	0.023595
1582.000000	0.022885
1580.000000	0.022285
1578.000000	0.021804
1576.000000	0.021468
1574.000000	0.021282
1572.000000	0.021205
1570.000000	0.021175
1568.000000	0.021158
1566.000000	0.021157
1564.000000	0.021174
1562.000000	0.021178
1560.000000	0.021117
1558.000000	0.020920
1556.000000	0.020590
1554.000000	0.020210
1552.000000	0.019810
1550.000000	0.019403
1548.000000	0.018999
1546.000000	0.018618
1544.000000	0.018307
1542.000000	0.018105
1540.000000	0.018017
1538.000000	0.018026
1536.000000	0.018072
1534.000000	0.018117
1532.000000	0.018165
1530.000000	0.018242
1528.000000	0.018327
1526.000000	0.018368
1524.000000	0.018325
1522.000000	0.018210
1520.000000	0.018078
1518.000000	0.017980
1516.000000	0.017912
1514.000000	0.017835
1512.000000	0.017741
1510.000000	0.017657
1508.000000	0.017621
1506.000000	0.017661
1504.000000	0.017715
1502.000000	0.017743
1500.000000	0.017746
1498.000000	0.017742
1496.000000	0.017749
1494.000000	0.017774
1492.000000	0.017814
1490.000000	0.017864
1488.000000	0.017934
1486.000000	0.018041
1484.000000	0.018190
1482.000000	0.018371
1480.000000	0.018559
1478.000000	0.018725
1476.000000	0.018863
1474.000000	0.018995
1472.000000	0.019114
1470.000000	0.019177
1468.000000	0.019190
1466.000000	0.019188
1464.000000	0.019192
1462.000000	0.019209
1460.000000	0.019225
1458.000000	0.019213
1456.000000	0.019150
1454.000000	0.019082
1452.000000	0.019048
1450.000000	0.019037
1448.000000	0.019020
1446.000000	0.018993
1444.000000	0.018989
1442.000000	0.019037
1440.000000	0.019147
1438.000000	0.019300
1436.000000	0.019462
1434.000000	0.019604
1432.000000	0.019736
1430.000000	0.019880
1428.000000	0.020016
1426.000000	0.020101
1424.000000	0.020128
1422.000000	0.020109
1420.000000	0.020059
1418.000000	0.019991
1416.000000	0.019904
1414.000000	0.019792
1412.000000	0.019667
1410.000000	0.019557
1408.000000	0.019465
1406.000000	0.019376
1404.000000	0.019282
1402.000000	0.019189
1400.000000	0.019115
1398.000000	0.019057
1396.000000	0.018992
1394.000000	0.018912
1392.000000	0.018833
1390.000000	0.018775
1388.000000	0.018740
1386.000000	0.018705
1384.000000	0.018647
1382.000000	0.018578
1380.000000	0.018515
1378.000000	0.018463
1376.000000	0.018424
1374.000000	0.018399
1372.000000	0.018396
1370.000000	0.018433
1368.000000	0.018510
1366.000000	0.018608
1364.000000	0.018722
1362.000000	0.018857
1360.000000	0.018999
1358.000000	0.019125
1356.000000	0.019223
1354.000000	0.019285
1352.000000	0.019324
1350.000000	0.019368
1348.000000	0.019407
1346.000000	0.019425
1344.000000	0.019430
1342.000000	0.019443
1340.000000	0.019476
1338.000000	0.019515
1336.000000	0.019557
1334.000000	0.019603
1332.000000	0.019657
1330.000000	0.019719
1328.000000	0.019798
1326.000000	0.019892
1324.000000	0.019983
1322.000000	0.020067
1320.000000	0.020162
1318.000000	0.020264
1316.000000	0.020358
1314.000000	0.020433
1312.000000	0.020491
1310.000000	0.020529
1308.000000	0.020552
1306.000000	0.020567
1304.000000	0.020578
1302.000000	0.020581
1300.000000	0.020579
1298.000000	0.020584
1296.000000	0.020601
1294.000000	0.020634
1292.000000	0.020694
1290.000000	0.020786
1288.000000	0.020896
1286.000000	0.021017
1284.000000	0.021157
1282.000000	0.021331
1280.000000	0.021538
1278.000000	0.021777
1276.000000	0.022041
1274.000000	0.022319
1272.000000	0.022620
1270.000000	0.022952
1268.000000	0.023311
1266.000000	0.023692
1264.000000	0.024089
1262.000000	0.024491
1260.000000	0.024889
1258.000000	0.025303
1256.000000	0.025752
1254.000000	0.026247
1252.000000	0.026794
1250.000000	0.027402
1248.000000	0.028082
1246.000000	0.028854
1244.000000	0.029752
1242.000000	0.030791
1240.000000	0.031966
1238.000000	0.033268
1236.000000	0.034706
1234.000000	0.036289
1232.000000	0.038012
1230.000000	0.039863
1228.000000	0.041837
1226.000000	0.043928
1224.000000	0.046132
1222.000000	0.048447
1220.000000	0.050857
1218.000000	0.053334
1216.000000	0.055867
1214.000000	0.058452
1212.000000	0.061066
1210.000000	0.063665
1208.000000	0.066197
1206.000000	0.068634
1204.000000	0.070980
1202.000000	0.073222
1200.000000	0.075324
1198.000000	0.077260
1196.000000	0.079021
1194.000000	0.080583
1192.000000	0.081925
1190.000000	0.083035
1188.000000	0.083898
1186.000000	0.084520
1184.000000	0.084933
1182.000000	0.085168
1180.000000	0.085254
1178.000000	0.085247
1176.000000	0.085231
1174.000000	0.085273
1172.000000	0.085421
1170.000000	0.085689
1168.000000	0.086053
1166.000000	0.086505
1164.000000	0.087047
1162.000000	0.087661
1160.000000	0.088301
1158.000000	0.088930
1156.000000	0.089525
1154.000000	0.090071
1152.000000	0.090576
1150.000000	0.091063
1148.000000	0.091540
1146.000000	0.091995
1144.000000	0.092434
1142.000000	0.092852
1140.000000	0.093235
1138.000000	0.093598
1136.000000	0.093962
1134.000000	0.094302
1132.000000	0.094570
1130.000000	0.094753
1128.000000	0.094860
1126.000000	0.094906
1124.000000	0.094917
1122.000000	0.094891
1120.000000	0.094789
1118.000000	0.094605
1116.000000	0.094403
1114.000000	0.094268
1112.000000	0.094234
1110.000000	0.094296
1108.000000	0.094459
1106.000000	0.094733
1104.000000	0.095117
1102.000000	0.095618
1100.000000	0.096178
1098.000000	0.096665
1096.000000	0.096945
1094.000000	0.096907
1092.000000	0.096437
1090.000000	0.095425
1088.000000	0.093797
1086.000000	0.091524
1084.000000	0.088625
1082.000000	0.085183
1080.000000	0.081340
1078.000000	0.077253
1076.000000	0.073065
1074.000000	0.068935
1072.000000	0.065026
1070.000000	0.061444
1068.000000	0.058232
1066.000000	0.055408
1064.000000	0.052977
1062.000000	0.050898
1060.000000	0.049106
1058.000000	0.047557
1056.000000	0.046203
1054.000000	0.044975
1052.000000	0.043835
1050.000000	0.042783
1048.000000	0.041801
1046.000000	0.040864
1044.000000	0.039961
1042.000000	0.039074
1040.000000	0.038165
1038.000000	0.037235
1036.000000	0.036318
1034.000000	0.035427
1032.000000	0.034556
1030.000000	0.033719
1028.000000	0.032940
1026.000000	0.032248
1024.000000	0.031678
1022.000000	0.031235
1020.000000	0.030901
1018.000000	0.030640
1016.000000	0.030399
1014.000000	0.030137
1012.000000	0.029828
1010.000000	0.029441
1008.000000	0.028947
1006.000000	0.028342
1004.000000	0.027636
1002.000000	0.026855
1000.000000	0.026042
998.000000	0.025241
996.000000	0.024480
994.000000	0.023781
992.000000	0.023161
990.000000	0.022635
988.000000	0.022208
986.000000	0.021869
984.000000	0.021581
982.000000	0.021303
980.000000	0.021003
978.000000	0.020672
976.000000	0.020305
974.000000	0.019886
972.000000	0.019403
970.000000	0.018859
968.000000	0.018291
966.000000	0.017739
964.000000	0.017223
962.000000	0.016751
960.000000	0.016326
958.000000	0.015951
956.000000	0.015603
954.000000	0.015257
952.000000	0.014896
950.000000	0.014508
948.000000	0.014089
946.000000	0.013630
944.000000	0.013117
942.000000	0.012540
940.000000	0.011912
938.000000	0.011267
936.000000	0.010616
934.000000	0.009951
932.000000	0.009278
930.000000	0.008610
928.000000	0.007957
926.000000	0.007326
924.000000	0.006721
922.000000	0.006148
920.000000	0.005608
918.000000	0.005108
916.000000	0.004645
914.000000	0.004185
912.000000	0.003698
910.000000	0.003186
908.000000	0.002667
906.000000	0.002151
904.000000	0.001643
902.000000	0.001150
900.000000	0.000673
898.000000	0.000247
896.000000	-0.000065
894.000000	-0.000237
892.000000	-0.000277
890.000000	-0.000207
888.000000	-0.000036
886.000000	0.000272
884.000000	0.000655
882.000000	0.001120
880.000000	0.001624
878.000000	0.002130
876.000000	0.002621
874.000000	0.003109
872.000000	0.003619
870.000000	0.004146
868.000000	0.004670
866.000000	0.005200
864.000000	0.005763
862.000000	0.006385
860.000000	0.007101
858.000000	0.007910
856.000000	0.008755
854.000000	0.009605
852.000000	0.010479
850.000000	0.011387
848.000000	0.012312
846.000000	0.013230
844.000000	0.014116
842.000000	0.014954
840.000000	0.015768
838.000000	0.016574
836.000000	0.017333
834.000000	0.018001
832.000000	0.018566
830.000000	0.019025
828.000000	0.019369
826.000000	0.019600
824.000000	0.019730
822.000000	0.019780
820.000000	0.019776
818.000000	0.019752
816.000000	0.019738
814.000000	0.019756
812.000000	0.019821
810.000000	0.019933
808.000000	0.020065
806.000000	0.020190
804.000000	0.020306
802.000000	0.020423
800.000000	0.020537
798.000000	0.020632
796.000000	0.020702
794.000000	0.020771
792.000000	0.020863
790.000000	0.020976
788.000000	0.021107
786.000000	0.021260
784.000000	0.021434
782.000000	0.021634
780.000000	0.021859
778.000000	0.022102
776.000000	0.022380
774.000000	0.022717
772.000000	0.023117
770.000000	0.023575
768.000000	0.024072
766.000000	0.024607
764.000000	0.025193
762.000000	0.025824
760.000000	0.026470
758.000000	0.027115
756.000000	0.027750
754.000000	0.028360
752.000000	0.028951
750.000000	0.029526
748.000000	0.030088
746.000000	0.030645
744.000000	0.031208
742.000000	0.031780
740.000000	0.032353
738.000000	0.032929
736.000000	0.033515
734.000000	0.034113
732.000000	0.034724
730.000000	0.035338
728.000000	0.035945
726.000000	0.036498
724.000000	0.036973
722.000000	0.037421
720.000000	0.037905
718.000000	0.038436
716.000000	0.038977
714.000000	0.039485
712.000000	0.039909
710.000000	0.040275
708.000000	0.040741
706.000000	0.041354
704.000000	0.041905
702.000000	0.042345
700.000000	0.042733
