PE IR       SUBTECH     SPECTRUM    ASCII       PEDS        4.00        
   -1
LS_8_unfl.asc
14/09/24
10:00:58.00
14/09/26
10:44:34.00
nystrom.12
Co-added spectrum 3 at 1428, -2292 (Image Marker 1)
700.000000
#HDR
-1
-1
#GR
cm-1
A
1.0
0.0
4000.000000
-2.000000
1651
8
0.085361
-0.020878
#DATA
4000.000000	0.047439
3998.000000	0.047205
3996.000000	0.046942
3994.000000	0.046677
3992.000000	0.046421
3990.000000	0.046175
3988.000000	0.046005
3986.000000	0.045920
3984.000000	0.045842
3982.000000	0.045754
3980.000000	0.045706
3978.000000	0.045714
3976.000000	0.045761
3974.000000	0.045800
3972.000000	0.045769
3970.000000	0.045665
3968.000000	0.045553
3966.000000	0.045488
3964.000000	0.045464
3962.000000	0.045445
3960.000000	0.045433
3958.000000	0.045473
3956.000000	0.045597
3954.000000	0.045757
3952.000000	0.045896
3950.000000	0.045997
3948.000000	0.046059
3946.000000	0.046093
3944.000000	0.046140
3942.000000	0.046191
3940.000000	0.046184
3938.000000	0.046118
3936.000000	0.046061
3934.000000	0.046062
3932.000000	0.046120
3930.000000	0.046181
3928.000000	0.046185
3926.000000	0.046106
3924.000000	0.046001
3922.000000	0.045937
3920.000000	0.045906
3918.000000	0.045890
3916.000000	0.045868
3914.000000	0.045821
3912.000000	0.045784
3910.000000	0.045783
3908.000000	0.045793
3906.000000	0.045783
3904.000000	0.045753
3902.000000	0.045696
3900.000000	0.045581
3898.000000	0.045406
3896.000000	0.045210
3894.000000	0.045045
3892.000000	0.044946
3890.000000	0.044888
3888.000000	0.044829
3886.000000	0.044776
3884.000000	0.044772
3882.000000	0.044852
3880.000000	0.044993
3878.000000	0.045145
3876.000000	0.045290
3874.000000	0.045443
3872.000000	0.045604
3870.000000	0.045768
3868.000000	0.045959
3866.000000	0.046157
3864.000000	0.046326
3862.000000	0.046476
3860.000000	0.046608
3858.000000	0.046718
3856.000000	0.046823
3854.000000	0.046880
3852.000000	0.046780
3850.000000	0.046547
3848.000000	0.046280
3846.000000	0.046023
3844.000000	0.045788
3842.000000	0.045538
3840.000000	0.045237
3838.000000	0.044956
3836.000000	0.044847
3834.000000	0.044885
3832.000000	0.044973
3830.000000	0.045089
3828.000000	0.045193
3826.000000	0.045288
3824.000000	0.045426
3822.000000	0.045587
3820.000000	0.045705
3818.000000	0.045765
3816.000000	0.045792
3814.000000	0.045792
3812.000000	0.045741
3810.000000	0.045634
3808.000000	0.045500
3806.000000	0.045384
3804.000000	0.045293
3802.000000	0.045252
3800.000000	0.045314
3798.000000	0.045421
3796.000000	0.045517
3794.000000	0.045640
3792.000000	0.045785
3790.000000	0.045867
3788.000000	0.045848
3786.000000	0.045736
3784.000000	0.045535
3782.000000	0.045285
3780.000000	0.045043
3778.000000	0.044829
3776.000000	0.044648
3774.000000	0.044557
3772.000000	0.044610
3770.000000	0.044792
3768.000000	0.045039
3766.000000	0.045319
3764.000000	0.045642
3762.000000	0.046018
3760.000000	0.046447
3758.000000	0.046907
3756.000000	0.047331
3754.000000	0.047684
3752.000000	0.047992
3750.000000	0.048275
3748.000000	0.048469
3746.000000	0.048502
3744.000000	0.048341
3742.000000	0.047999
3740.000000	0.047545
3738.000000	0.047075
3736.000000	0.046667
3734.000000	0.046356
3732.000000	0.046127
3730.000000	0.045969
3728.000000	0.045895
3726.000000	0.045906
3724.000000	0.046000
3722.000000	0.046128
3720.000000	0.046170
3718.000000	0.046071
3716.000000	0.045889
3714.000000	0.045697
3712.000000	0.045542
3710.000000	0.045437
3708.000000	0.045344
3706.000000	0.045267
3704.000000	0.045259
3702.000000	0.045335
3700.000000	0.045458
3698.000000	0.045587
3696.000000	0.045702
3694.000000	0.045800
3692.000000	0.045901
3690.000000	0.045991
3688.000000	0.046017
3686.000000	0.045990
3684.000000	0.045940
3682.000000	0.045871
3680.000000	0.045797
3678.000000	0.045715
3676.000000	0.045625
3674.000000	0.045570
3672.000000	0.045548
3670.000000	0.045534
3668.000000	0.045545
3666.000000	0.045614
3664.000000	0.045746
3662.000000	0.045942
3660.000000	0.046211
3658.000000	0.046542
3656.000000	0.046936
3654.000000	0.047406
3652.000000	0.047950
3650.000000	0.048550
3648.000000	0.049190
3646.000000	0.049889
3644.000000	0.050630
3642.000000	0.051384
3640.000000	0.052130
3638.000000	0.052869
3636.000000	0.053628
3634.000000	0.054408
3632.000000	0.055191
3630.000000	0.055971
3628.000000	0.056733
3626.000000	0.057445
3624.000000	0.058138
3622.000000	0.058843
3620.000000	0.059521
3618.000000	0.060111
3616.000000	0.060626
3614.000000	0.061069
3612.000000	0.061426
3610.000000	0.061740
3608.000000	0.062039
3606.000000	0.062278
3604.000000	0.062437
3602.000000	0.062547
3600.000000	0.062659
3598.000000	0.062803
3596.000000	0.062984
3594.000000	0.063186
3592.000000	0.063357
3590.000000	0.063480
3588.000000	0.063620
3586.000000	0.063844
3584.000000	0.064127
3582.000000	0.064415
3580.000000	0.064709
3578.000000	0.065020
3576.000000	0.065377
3574.000000	0.065813
3572.000000	0.066281
3570.000000	0.066711
3568.000000	0.067094
3566.000000	0.067454
3564.000000	0.067790
3562.000000	0.068128
3560.000000	0.068482
3558.000000	0.068816
3556.000000	0.069112
3554.000000	0.069412
3552.000000	0.069734
3550.000000	0.070050
3548.000000	0.070371
3546.000000	0.070701
3544.000000	0.070995
3542.000000	0.071253
3540.000000	0.071509
3538.000000	0.071785
3536.000000	0.072104
3534.000000	0.072496
3532.000000	0.072947
3530.000000	0.073395
3528.000000	0.073820
3526.000000	0.074259
3524.000000	0.074764
3522.000000	0.075313
3520.000000	0.075828
3518.000000	0.076259
3516.000000	0.076619
3514.000000	0.076956
3512.000000	0.077298
3510.000000	0.077661
3508.000000	0.078027
3506.000000	0.078351
3504.000000	0.078645
3502.000000	0.078948
3500.000000	0.079273
3498.000000	0.079632
3496.000000	0.080053
3494.000000	0.080513
3492.000000	0.080960
3490.000000	0.081392
3488.000000	0.081849
3486.000000	0.082351
3484.000000	0.082867
3482.000000	0.083349
3480.000000	0.083769
3478.000000	0.084144
3476.000000	0.084509
3474.000000	0.084860
3472.000000	0.085134
3470.000000	0.085291
3468.000000	0.085356
3466.000000	0.085361
3464.000000	0.085286
3462.000000	0.085090
3460.000000	0.084758
3458.000000	0.084321
3456.000000	0.083848
3454.000000	0.083410
3452.000000	0.082996
3450.000000	0.082560
3448.000000	0.082094
3446.000000	0.081638
3444.000000	0.081226
3442.000000	0.080859
3440.000000	0.080488
3438.000000	0.080020
3436.000000	0.079426
3434.000000	0.078771
3432.000000	0.078109
3430.000000	0.077429
3428.000000	0.076687
3426.000000	0.075851
3424.000000	0.074950
3422.000000	0.074072
3420.000000	0.073268
3418.000000	0.072497
3416.000000	0.071709
3414.000000	0.070931
3412.000000	0.070206
3410.000000	0.069545
3408.000000	0.068932
3406.000000	0.068360
3404.000000	0.067834
3402.000000	0.067375
3400.000000	0.067004
3398.000000	0.066686
3396.000000	0.066370
3394.000000	0.066065
3392.000000	0.065795
3390.000000	0.065547
3388.000000	0.065294
3386.000000	0.065026
3384.000000	0.064723
3382.000000	0.064388
3380.000000	0.064061
3378.000000	0.063747
3376.000000	0.063415
3374.000000	0.063057
3372.000000	0.062675
3370.000000	0.062246
3368.000000	0.061781
3366.000000	0.061335
3364.000000	0.060929
3362.000000	0.060556
3360.000000	0.060234
3358.000000	0.059975
3356.000000	0.059782
3354.000000	0.059654
3352.000000	0.059585
3350.000000	0.059536
3348.000000	0.059457
3346.000000	0.059332
3344.000000	0.059171
3342.000000	0.058970
3340.000000	0.058714
3338.000000	0.058400
3336.000000	0.058058
3334.000000	0.057733
3332.000000	0.057428
3330.000000	0.057129
3328.000000	0.056844
3326.000000	0.056591
3324.000000	0.056394
3322.000000	0.056263
3320.000000	0.056176
3318.000000	0.056114
3316.000000	0.056078
3314.000000	0.056078
3312.000000	0.056096
3310.000000	0.056097
3308.000000	0.056051
3306.000000	0.055946
3304.000000	0.055787
3302.000000	0.055577
3300.000000	0.055318
3298.000000	0.055013
3296.000000	0.054674
3294.000000	0.054322
3292.000000	0.053984
3290.000000	0.053679
3288.000000	0.053395
3286.000000	0.053122
3284.000000	0.052856
3282.000000	0.052589
3280.000000	0.052319
3278.000000	0.052057
3276.000000	0.051805
3274.000000	0.051540
3272.000000	0.051272
3270.000000	0.051048
3268.000000	0.050900
3266.000000	0.050819
3264.000000	0.050784
3262.000000	0.050772
3260.000000	0.050750
3258.000000	0.050723
3256.000000	0.050723
3254.000000	0.050735
3252.000000	0.050691
3250.000000	0.050562
3248.000000	0.050384
3246.000000	0.050203
3244.000000	0.050047
3242.000000	0.049909
3240.000000	0.049754
3238.000000	0.049571
3236.000000	0.049398
3234.000000	0.049267
3232.000000	0.049148
3230.000000	0.048995
3228.000000	0.048803
3226.000000	0.048586
3224.000000	0.048353
3222.000000	0.048092
3220.000000	0.047800
3218.000000	0.047488
3216.000000	0.047162
3214.000000	0.046843
3212.000000	0.046547
3210.000000	0.046264
3208.000000	0.045991
3206.000000	0.045743
3204.000000	0.045520
3202.000000	0.045302
3200.000000	0.045086
3198.000000	0.044891
3196.000000	0.044727
3194.000000	0.044589
3192.000000	0.044476
3190.000000	0.044380
3188.000000	0.044288
3186.000000	0.044196
3184.000000	0.044089
3182.000000	0.043936
3180.000000	0.043726
3178.000000	0.043463
3176.000000	0.043140
3174.000000	0.042760
3172.000000	0.042341
3170.000000	0.041892
3168.000000	0.041437
3166.000000	0.041017
3164.000000	0.040668
3162.000000	0.040396
3160.000000	0.040186
3158.000000	0.040037
3156.000000	0.039968
3154.000000	0.039962
3152.000000	0.039967
3150.000000	0.039944
3148.000000	0.039877
3146.000000	0.039759
3144.000000	0.039606
3142.000000	0.039426
3140.000000	0.039207
3138.000000	0.038958
3136.000000	0.038711
3134.000000	0.038486
3132.000000	0.038295
3130.000000	0.038156
3128.000000	0.038049
3126.000000	0.037943
3124.000000	0.037844
3122.000000	0.037764
3120.000000	0.037690
3118.000000	0.037620
3116.000000	0.037559
3114.000000	0.037499
3112.000000	0.037442
3110.000000	0.037414
3108.000000	0.037429
3106.000000	0.037469
3104.000000	0.037524
3102.000000	0.037599
3100.000000	0.037664
3098.000000	0.037672
3096.000000	0.037598
3094.000000	0.037442
3092.000000	0.037206
3090.000000	0.036902
3088.000000	0.036553
3086.000000	0.036171
3084.000000	0.035792
3082.000000	0.035475
3080.000000	0.035260
3078.000000	0.035142
3076.000000	0.035099
3074.000000	0.035114
3072.000000	0.035177
3070.000000	0.035274
3068.000000	0.035379
3066.000000	0.035465
3064.000000	0.035502
3062.000000	0.035478
3060.000000	0.035410
3058.000000	0.035306
3056.000000	0.035160
3054.000000	0.034987
3052.000000	0.034808
3050.000000	0.034621
3048.000000	0.034436
3046.000000	0.034275
3044.000000	0.034156
3042.000000	0.034084
3040.000000	0.034043
3038.000000	0.034006
3036.000000	0.033941
3034.000000	0.033844
3032.000000	0.033741
3030.000000	0.033639
3028.000000	0.033511
3026.000000	0.033347
3024.000000	0.033158
3022.000000	0.032949
3020.000000	0.032733
3018.000000	0.032534
3016.000000	0.032331
3014.000000	0.032088
3012.000000	0.031845
3010.000000	0.031647
3008.000000	0.031476
3006.000000	0.031332
3004.000000	0.031247
3002.000000	0.031219
3000.000000	0.031243
2998.000000	0.031336
2996.000000	0.031463
2994.000000	0.031567
2992.000000	0.031652
2990.000000	0.031731
2988.000000	0.031789
2986.000000	0.031818
2984.000000	0.031819
2982.000000	0.031798
2980.000000	0.031755
2978.000000	0.031692
2976.000000	0.031600
2974.000000	0.031489
2972.000000	0.031378
2970.000000	0.031261
2968.000000	0.031153
2966.000000	0.031058
2964.000000	0.030957
2962.000000	0.030838
2960.000000	0.030700
2958.000000	0.030559
2956.000000	0.030429
2954.000000	0.030322
2952.000000	0.030214
2950.000000	0.030085
2948.000000	0.029987
2946.000000	0.029976
2944.000000	0.030025
2942.000000	0.030066
2940.000000	0.030064
2938.000000	0.030011
2936.000000	0.029944
2934.000000	0.029910
2932.000000	0.029890
2930.000000	0.029821
2928.000000	0.029713
2926.000000	0.029645
2924.000000	0.029663
2922.000000	0.029747
2920.000000	0.029849
2918.000000	0.029912
2916.000000	0.029907
2914.000000	0.029843
2912.000000	0.029748
2910.000000	0.029622
2908.000000	0.029435
2906.000000	0.029188
2904.000000	0.028935
2902.000000	0.028725
2900.000000	0.028549
2898.000000	0.028408
2896.000000	0.028315
2894.000000	0.028262
2892.000000	0.028239
2890.000000	0.028243
2888.000000	0.028257
2886.000000	0.028263
2884.000000	0.028281
2882.000000	0.028330
2880.000000	0.028388
2878.000000	0.028442
2876.000000	0.028501
2874.000000	0.028557
2872.000000	0.028603
2870.000000	0.028649
2868.000000	0.028676
2866.000000	0.028641
2864.000000	0.028560
2862.000000	0.028463
2860.000000	0.028352
2858.000000	0.028241
2856.000000	0.028150
2854.000000	0.028070
2852.000000	0.028011
2850.000000	0.028000
2848.000000	0.028032
2846.000000	0.028075
2844.000000	0.028113
2842.000000	0.028146
2840.000000	0.028177
2838.000000	0.028207
2836.000000	0.028220
2834.000000	0.028181
2832.000000	0.028081
2830.000000	0.027950
2828.000000	0.027811
2826.000000	0.027671
2824.000000	0.027513
2822.000000	0.027343
2820.000000	0.027199
2818.000000	0.027114
2816.000000	0.027102
2814.000000	0.027156
2812.000000	0.027241
2810.000000	0.027317
2808.000000	0.027384
2806.000000	0.027465
2804.000000	0.027538
2802.000000	0.027568
2800.000000	0.027563
2798.000000	0.027556
2796.000000	0.027575
2794.000000	0.027646
2792.000000	0.027769
2790.000000	0.027912
2788.000000	0.028063
2786.000000	0.028230
2784.000000	0.028392
2782.000000	0.028511
2780.000000	0.028563
2778.000000	0.028551
2776.000000	0.028506
2774.000000	0.028456
2772.000000	0.028399
2770.000000	0.028325
2768.000000	0.028257
2766.000000	0.028235
2764.000000	0.028265
2762.000000	0.028311
2760.000000	0.028319
2758.000000	0.028277
2756.000000	0.028225
2754.000000	0.028192
2752.000000	0.028157
2750.000000	0.028082
2748.000000	0.027975
2746.000000	0.027889
2744.000000	0.027868
2742.000000	0.027909
2740.000000	0.027980
2738.000000	0.028060
2736.000000	0.028163
2734.000000	0.028326
2732.000000	0.028542
2730.000000	0.028763
2728.000000	0.028963
2726.000000	0.029155
2724.000000	0.029353
2722.000000	0.029551
2720.000000	0.029718
2718.000000	0.029805
2716.000000	0.029813
2714.000000	0.029783
2712.000000	0.029740
2710.000000	0.029668
2708.000000	0.029549
2706.000000	0.029381
2704.000000	0.029204
2702.000000	0.029081
2700.000000	0.029027
2698.000000	0.029009
2696.000000	0.029008
2694.000000	0.029042
2692.000000	0.029129
2690.000000	0.029273
2688.000000	0.029459
2686.000000	0.029650
2684.000000	0.029819
2682.000000	0.029969
2680.000000	0.030118
2678.000000	0.030255
2676.000000	0.030348
2674.000000	0.030382
2672.000000	0.030367
2670.000000	0.030313
2668.000000	0.030237
2666.000000	0.030158
2664.000000	0.030080
2662.000000	0.029995
2660.000000	0.029924
2658.000000	0.029889
2656.000000	0.029901
2654.000000	0.029951
2652.000000	0.030011
2650.000000	0.030047
2648.000000	0.030041
2646.000000	0.030008
2644.000000	0.029954
2642.000000	0.029866
2640.000000	0.029734
2638.000000	0.029573
2636.000000	0.029404
2634.000000	0.029259
2632.000000	0.029190
2630.000000	0.029208
2628.000000	0.029275
2626.000000	0.029372
2624.000000	0.029513
2622.000000	0.029670
2620.000000	0.029798
2618.000000	0.029880
2616.000000	0.029905
2614.000000	0.029865
2612.000000	0.029801
2610.000000	0.029745
2608.000000	0.029677
2606.000000	0.029587
2604.000000	0.029511
2602.000000	0.029493
2600.000000	0.029542
2598.000000	0.029633
2596.000000	0.029710
2594.000000	0.029723
2592.000000	0.029675
2590.000000	0.029614
2588.000000	0.029565
2586.000000	0.029516
2584.000000	0.029436
2582.000000	0.029323
2580.000000	0.029227
2578.000000	0.029186
2576.000000	0.029193
2574.000000	0.029215
2572.000000	0.029224
2570.000000	0.029210
2568.000000	0.029176
2566.000000	0.029145
2564.000000	0.029129
2562.000000	0.029109
2560.000000	0.029071
2558.000000	0.029044
2556.000000	0.029046
2554.000000	0.029072
2552.000000	0.029111
2550.000000	0.029148
2548.000000	0.029145
2546.000000	0.029083
2544.000000	0.028995
2542.000000	0.028911
2540.000000	0.028825
2538.000000	0.028724
2536.000000	0.028607
2534.000000	0.028508
2532.000000	0.028468
2530.000000	0.028498
2528.000000	0.028565
2526.000000	0.028638
2524.000000	0.028722
2522.000000	0.028822
2520.000000	0.028919
2518.000000	0.028983
2516.000000	0.029000
2514.000000	0.028982
2512.000000	0.028943
2510.000000	0.028889
2508.000000	0.028817
2506.000000	0.028727
2504.000000	0.028643
2502.000000	0.028592
2500.000000	0.028556
2498.000000	0.028505
2496.000000	0.028438
2494.000000	0.028364
2492.000000	0.028274
2490.000000	0.028170
2488.000000	0.028055
2486.000000	0.027919
2484.000000	0.027763
2482.000000	0.027618
2480.000000	0.027486
2478.000000	0.027345
2476.000000	0.027190
2474.000000	0.027031
2472.000000	0.026866
2470.000000	0.026696
2468.000000	0.026527
2466.000000	0.026341
2464.000000	0.026136
2462.000000	0.025951
2460.000000	0.025818
2458.000000	0.025740
2456.000000	0.025705
2454.000000	0.025690
2452.000000	0.025682
2450.000000	0.025696
2448.000000	0.025742
2446.000000	0.025790
2444.000000	0.025813
2442.000000	0.025802
2440.000000	0.025755
2438.000000	0.025681
2436.000000	0.025592
2434.000000	0.025481
2432.000000	0.025343
2430.000000	0.025197
2428.000000	0.025039
2426.000000	0.024845
2424.000000	0.024621
2422.000000	0.024398
2420.000000	0.024210
2418.000000	0.024075
2416.000000	0.023979
2414.000000	0.023915
2412.000000	0.023899
2410.000000	0.023949
2408.000000	0.024040
2406.000000	0.024111
2404.000000	0.024123
2402.000000	0.024089
2400.000000	0.024043
2398.000000	0.023976
2396.000000	0.023855
2394.000000	0.023654
2392.000000	0.023403
2390.000000	0.023166
2388.000000	0.022976
2386.000000	0.022785
2384.000000	0.022493
2382.000000	0.022025
2380.000000	0.021420
2378.000000	0.020805
2376.000000	0.020248
2374.000000	0.019715
2372.000000	0.019164
2370.000000	0.018602
2368.000000	0.018096
2366.000000	0.017808
2364.000000	0.017843
2362.000000	0.018049
2360.000000	0.018246
2358.000000	0.018411
2356.000000	0.018578
2354.000000	0.018757
2352.000000	0.018951
2350.000000	0.019139
2348.000000	0.019246
2346.000000	0.019246
2344.000000	0.019180
2342.000000	0.019068
2340.000000	0.018901
2338.000000	0.018704
2336.000000	0.018540
2334.000000	0.018386
2332.000000	0.018187
2330.000000	0.017954
2328.000000	0.017728
2326.000000	0.017567
2324.000000	0.017505
2322.000000	0.017533
2320.000000	0.017606
2318.000000	0.017676
2316.000000	0.017762
2314.000000	0.017904
2312.000000	0.018110
2310.000000	0.018357
2308.000000	0.018608
2306.000000	0.018821
2304.000000	0.018977
2302.000000	0.019089
2300.000000	0.019150
2298.000000	0.019137
2296.000000	0.019040
2294.000000	0.018854
2292.000000	0.018578
2290.000000	0.018250
2288.000000	0.017929
2286.000000	0.017638
2284.000000	0.017375
2282.000000	0.017153
2280.000000	0.016985
2278.000000	0.016870
2276.000000	0.016800
2274.000000	0.016769
2272.000000	0.016764
2270.000000	0.016745
2268.000000	0.016675
2266.000000	0.016554
2264.000000	0.016399
2262.000000	0.016210
2260.000000	0.015990
2258.000000	0.015756
2256.000000	0.015520
2254.000000	0.015298
2252.000000	0.015128
2250.000000	0.015034
2248.000000	0.014999
2246.000000	0.014991
2244.000000	0.014989
2242.000000	0.014985
2240.000000	0.014982
2238.000000	0.014965
2236.000000	0.014910
2234.000000	0.014805
2232.000000	0.014655
2230.000000	0.014475
2228.000000	0.014300
2226.000000	0.014152
2224.000000	0.014031
2222.000000	0.013924
2220.000000	0.013822
2218.000000	0.013726
2216.000000	0.013637
2214.000000	0.013553
2212.000000	0.013469
2210.000000	0.013389
2208.000000	0.013314
2206.000000	0.013254
2204.000000	0.013220
2202.000000	0.013209
2200.000000	0.013219
2198.000000	0.013249
2196.000000	0.013292
2194.000000	0.013332
2192.000000	0.013342
2190.000000	0.013303
2188.000000	0.013210
2186.000000	0.013068
2184.000000	0.012893
2182.000000	0.012700
2180.000000	0.012507
2178.000000	0.012321
2176.000000	0.012155
2174.000000	0.012027
2172.000000	0.011950
2170.000000	0.011925
2168.000000	0.011937
2166.000000	0.011972
2164.000000	0.012010
2162.000000	0.012039
2160.000000	0.012054
2158.000000	0.012034
2156.000000	0.011962
2154.000000	0.011850
2152.000000	0.011713
2150.000000	0.011560
2148.000000	0.011397
2146.000000	0.011225
2144.000000	0.011049
2142.000000	0.010888
2140.000000	0.010750
2138.000000	0.010622
2136.000000	0.010503
2134.000000	0.010401
2132.000000	0.010304
2130.000000	0.010201
2128.000000	0.010103
2126.000000	0.010018
2124.000000	0.009942
2122.000000	0.009881
2120.000000	0.009833
2118.000000	0.009778
2116.000000	0.009704
2114.000000	0.009622
2112.000000	0.009534
2110.000000	0.009428
2108.000000	0.009290
2106.000000	0.009115
2104.000000	0.008921
2102.000000	0.008726
2100.000000	0.008537
2098.000000	0.008365
2096.000000	0.008225
2094.000000	0.008117
2092.000000	0.008029
2090.000000	0.007949
2088.000000	0.007868
2086.000000	0.007784
2084.000000	0.007713
2082.000000	0.007656
2080.000000	0.007591
2078.000000	0.007506
2076.000000	0.007406
2074.000000	0.007298
2072.000000	0.007192
2070.000000	0.007091
2068.000000	0.006988
2066.000000	0.006877
2064.000000	0.006765
2062.000000	0.006676
2060.000000	0.006622
2058.000000	0.006592
2056.000000	0.006584
2054.000000	0.006594
2052.000000	0.006604
2050.000000	0.006605
2048.000000	0.006591
2046.000000	0.006544
2044.000000	0.006442
2042.000000	0.006292
2040.000000	0.006110
2038.000000	0.005916
2036.000000	0.005733
2034.000000	0.005574
2032.000000	0.005439
2030.000000	0.005325
2028.000000	0.005239
2026.000000	0.005192
2024.000000	0.005180
2022.000000	0.005192
2020.000000	0.005218
2018.000000	0.005242
2016.000000	0.005252
2014.000000	0.005256
2012.000000	0.005265
2010.000000	0.005274
2008.000000	0.005272
2006.000000	0.005256
2004.000000	0.005225
2002.000000	0.005193
2000.000000	0.005171
1998.000000	0.005140
1996.000000	0.005082
1994.000000	0.005021
1992.000000	0.004978
1990.000000	0.004946
1988.000000	0.004911
1986.000000	0.004850
1984.000000	0.004743
1982.000000	0.004620
1980.000000	0.004515
1978.000000	0.004432
1976.000000	0.004345
1974.000000	0.004242
1972.000000	0.004138
1970.000000	0.004066
1968.000000	0.004044
1966.000000	0.004059
1964.000000	0.004080
1962.000000	0.004091
1960.000000	0.004107
1958.000000	0.004151
1956.000000	0.004210
1954.000000	0.004249
1952.000000	0.004259
1950.000000	0.004253
1948.000000	0.004244
1946.000000	0.004240
1944.000000	0.004221
1942.000000	0.004164
1940.000000	0.004089
1938.000000	0.004047
1936.000000	0.004054
1934.000000	0.004090
1932.000000	0.004137
1930.000000	0.004196
1928.000000	0.004274
1926.000000	0.004390
1924.000000	0.004538
1922.000000	0.004675
1920.000000	0.004777
1918.000000	0.004860
1916.000000	0.004945
1914.000000	0.005028
1912.000000	0.005100
1910.000000	0.005163
1908.000000	0.005220
1906.000000	0.005263
1904.000000	0.005286
1902.000000	0.005283
1900.000000	0.005251
1898.000000	0.005203
1896.000000	0.005154
1894.000000	0.005099
1892.000000	0.005029
1890.000000	0.004959
1888.000000	0.004914
1886.000000	0.004914
1884.000000	0.004958
1882.000000	0.005040
1880.000000	0.005149
1878.000000	0.005277
1876.000000	0.005412
1874.000000	0.005555
1872.000000	0.005703
1870.000000	0.005833
1868.000000	0.005927
1866.000000	0.005985
1864.000000	0.006019
1862.000000	0.006047
1860.000000	0.006093
1858.000000	0.006154
1856.000000	0.006197
1854.000000	0.006231
1852.000000	0.006289
1850.000000	0.006380
1848.000000	0.006498
1846.000000	0.006635
1844.000000	0.006774
1842.000000	0.006900
1840.000000	0.007030
1838.000000	0.007163
1836.000000	0.007277
1834.000000	0.007358
1832.000000	0.007404
1830.000000	0.007408
1828.000000	0.007375
1826.000000	0.007329
1824.000000	0.007287
1822.000000	0.007258
1820.000000	0.007261
1818.000000	0.007306
1816.000000	0.007394
1814.000000	0.007525
1812.000000	0.007695
1810.000000	0.007888
1808.000000	0.008084
1806.000000	0.008273
1804.000000	0.008446
1802.000000	0.008605
1800.000000	0.008741
1798.000000	0.008840
1796.000000	0.008915
1794.000000	0.008981
1792.000000	0.009045
1790.000000	0.009112
1788.000000	0.009185
1786.000000	0.009257
1784.000000	0.009328
1782.000000	0.009393
1780.000000	0.009435
1778.000000	0.009449
1776.000000	0.009445
1774.000000	0.009420
1772.000000	0.009365
1770.000000	0.009290
1768.000000	0.009221
1766.000000	0.009189
1764.000000	0.009212
1762.000000	0.009294
1760.000000	0.009425
1758.000000	0.009583
1756.000000	0.009772
1754.000000	0.009992
1752.000000	0.010223
1750.000000	0.010433
1748.000000	0.010594
1746.000000	0.010708
1744.000000	0.010782
1742.000000	0.010826
1740.000000	0.010843
1738.000000	0.010822
1736.000000	0.010768
1734.000000	0.010685
1732.000000	0.010576
1730.000000	0.010449
1728.000000	0.010317
1726.000000	0.010201
1724.000000	0.010123
1722.000000	0.010097
1720.000000	0.010102
1718.000000	0.010110
1716.000000	0.010138
1714.000000	0.010212
1712.000000	0.010301
1710.000000	0.010376
1708.000000	0.010411
1706.000000	0.010379
1704.000000	0.010308
1702.000000	0.010274
1700.000000	0.010303
1698.000000	0.010381
1696.000000	0.010496
1694.000000	0.010644
1692.000000	0.010838
1690.000000	0.011095
1688.000000	0.011395
1686.000000	0.011679
1684.000000	0.011877
1682.000000	0.011973
1680.000000	0.012018
1678.000000	0.012026
1676.000000	0.011996
1674.000000	0.011914
1672.000000	0.011797
1670.000000	0.011679
1668.000000	0.011598
1666.000000	0.011585
1664.000000	0.011634
1662.000000	0.011736
1660.000000	0.011895
1658.000000	0.012116
1656.000000	0.012401
1654.000000	0.012730
1652.000000	0.013072
1650.000000	0.013451
1648.000000	0.013878
1646.000000	0.014319
1644.000000	0.014768
1642.000000	0.015280
1640.000000	0.015887
1638.000000	0.016612
1636.000000	0.017499
1634.000000	0.018580
1632.000000	0.019875
1630.000000	0.021418
1628.000000	0.023216
1626.000000	0.025217
1624.000000	0.027356
1622.000000	0.029553
1620.000000	0.031681
1618.000000	0.033630
1616.000000	0.035285
1614.000000	0.036511
1612.000000	0.037233
1610.000000	0.037421
1608.000000	0.037064
1606.000000	0.036197
1604.000000	0.034916
1602.000000	0.033317
1600.000000	0.031504
1598.000000	0.029605
1596.000000	0.027726
1594.000000	0.025928
1592.000000	0.024261
1590.000000	0.022765
1588.000000	0.021468
1586.000000	0.020379
1584.000000	0.019481
1582.000000	0.018725
1580.000000	0.018079
1578.000000	0.017553
1576.000000	0.017171
1574.000000	0.016940
1572.000000	0.016816
1570.000000	0.016741
1568.000000	0.016678
1566.000000	0.016632
1564.000000	0.016604
1562.000000	0.016561
1560.000000	0.016454
1558.000000	0.016212
1556.000000	0.015836
1554.000000	0.015410
1552.000000	0.014965
1550.000000	0.014513
1548.000000	0.014062
1546.000000	0.013636
1544.000000	0.013278
1542.000000	0.013031
1540.000000	0.012897
1538.000000	0.012860
1536.000000	0.012860
1534.000000	0.012859
1532.000000	0.012862
1530.000000	0.012893
1528.000000	0.012932
1526.000000	0.012927
1524.000000	0.012838
1522.000000	0.012677
1520.000000	0.012499
1518.000000	0.012355
1516.000000	0.012242
1514.000000	0.012119
1512.000000	0.011978
1510.000000	0.011848
1508.000000	0.011766
1506.000000	0.011760
1504.000000	0.011768
1502.000000	0.011751
1500.000000	0.011708
1498.000000	0.011657
1496.000000	0.011619
1494.000000	0.011598
1492.000000	0.011592
1490.000000	0.011595
1488.000000	0.011619
1486.000000	0.011680
1484.000000	0.011783
1482.000000	0.011918
1480.000000	0.012060
1478.000000	0.012179
1476.000000	0.012272
1474.000000	0.012357
1472.000000	0.012430
1470.000000	0.012447
1468.000000	0.012414
1466.000000	0.012365
1464.000000	0.012324
1462.000000	0.012294
1460.000000	0.012264
1458.000000	0.012206
1456.000000	0.012097
1454.000000	0.011982
1452.000000	0.011902
1450.000000	0.011844
1448.000000	0.011781
1446.000000	0.011708
1444.000000	0.011657
1442.000000	0.011659
1440.000000	0.011723
1438.000000	0.011830
1436.000000	0.011945
1434.000000	0.012041
1432.000000	0.012127
1430.000000	0.012224
1428.000000	0.012313
1426.000000	0.012352
1424.000000	0.012333
1422.000000	0.012267
1420.000000	0.012170
1418.000000	0.012056
1416.000000	0.011923
1414.000000	0.011764
1412.000000	0.011593
1410.000000	0.011436
1408.000000	0.011298
1406.000000	0.011162
1404.000000	0.011021
1402.000000	0.010882
1400.000000	0.010761
1398.000000	0.010657
1396.000000	0.010545
1394.000000	0.010419
1392.000000	0.010293
1390.000000	0.010188
1388.000000	0.010107
1386.000000	0.010025
1384.000000	0.009920
1382.000000	0.009804
1380.000000	0.009695
1378.000000	0.009596
1376.000000	0.009511
1374.000000	0.009439
1372.000000	0.009388
1370.000000	0.009379
1368.000000	0.009409
1366.000000	0.009460
1364.000000	0.009528
1362.000000	0.009616
1360.000000	0.009711
1358.000000	0.009790
1356.000000	0.009842
1354.000000	0.009856
1352.000000	0.009849
1350.000000	0.009846
1348.000000	0.009838
1346.000000	0.009809
1344.000000	0.009767
1342.000000	0.009734
1340.000000	0.009719
1338.000000	0.009712
1336.000000	0.009706
1334.000000	0.009706
1332.000000	0.009712
1330.000000	0.009728
1328.000000	0.009760
1326.000000	0.009807
1324.000000	0.009850
1322.000000	0.009888
1320.000000	0.009935
1318.000000	0.009991
1316.000000	0.010037
1314.000000	0.010066
1312.000000	0.010076
1310.000000	0.010067
1308.000000	0.010042
1306.000000	0.010011
1304.000000	0.009975
1302.000000	0.009930
1300.000000	0.009881
1298.000000	0.009839
1296.000000	0.009809
1294.000000	0.009794
1292.000000	0.009807
1290.000000	0.009852
1288.000000	0.009915
1286.000000	0.009989
1284.000000	0.010082
1282.000000	0.010208
1280.000000	0.010368
1278.000000	0.010559
1276.000000	0.010775
1274.000000	0.011007
1272.000000	0.011260
1270.000000	0.011545
1268.000000	0.011857
1266.000000	0.012190
1264.000000	0.012540
1262.000000	0.012894
1260.000000	0.013245
1258.000000	0.013611
1256.000000	0.014013
1254.000000	0.014461
1252.000000	0.014960
1250.000000	0.015520
1248.000000	0.016152
1246.000000	0.016878
1244.000000	0.017727
1242.000000	0.018719
1240.000000	0.019847
1238.000000	0.021102
1236.000000	0.022491
1234.000000	0.024027
1232.000000	0.025702
1230.000000	0.027506
1228.000000	0.029432
1226.000000	0.031476
1224.000000	0.033632
1222.000000	0.035899
1220.000000	0.038261
1218.000000	0.040690
1216.000000	0.043176
1214.000000	0.045714
1212.000000	0.048280
1210.000000	0.050831
1208.000000	0.053315
1206.000000	0.055705
1204.000000	0.058003
1202.000000	0.060197
1200.000000	0.062251
1198.000000	0.064139
1196.000000	0.065852
1194.000000	0.067366
1192.000000	0.068660
1190.000000	0.069722
1188.000000	0.070538
1186.000000	0.071112
1184.000000	0.071476
1182.000000	0.071664
1180.000000	0.071702
1178.000000	0.071647
1176.000000	0.071583
1174.000000	0.071577
1172.000000	0.071678
1170.000000	0.071897
1168.000000	0.072214
1166.000000	0.072617
1164.000000	0.073112
1162.000000	0.073677
1160.000000	0.074269
1158.000000	0.074849
1156.000000	0.075396
1154.000000	0.075895
1152.000000	0.076352
1150.000000	0.076791
1148.000000	0.077219
1146.000000	0.077626
1144.000000	0.078017
1142.000000	0.078386
1140.000000	0.078721
1138.000000	0.079036
1136.000000	0.079352
1134.000000	0.079643
1132.000000	0.079863
1130.000000	0.079998
1128.000000	0.080056
1126.000000	0.080055
1124.000000	0.080017
1122.000000	0.079942
1120.000000	0.079793
1118.000000	0.079560
1116.000000	0.079310
1114.000000	0.079126
1112.000000	0.079044
1110.000000	0.079057
1108.000000	0.079173
1106.000000	0.079397
1104.000000	0.079733
1102.000000	0.080186
1100.000000	0.080697
1098.000000	0.081136
1096.000000	0.081367
1094.000000	0.081280
1092.000000	0.080762
1090.000000	0.079702
1088.000000	0.078025
1086.000000	0.075703
1084.000000	0.072756
1082.000000	0.069266
1080.000000	0.065374
1078.000000	0.061238
1076.000000	0.057002
1074.000000	0.052823
1072.000000	0.048865
1070.000000	0.045234
1068.000000	0.041973
1066.000000	0.039101
1064.000000	0.036621
1062.000000	0.034493
1060.000000	0.032653
1058.000000	0.031055
1056.000000	0.029652
1054.000000	0.028375
1052.000000	0.027187
1050.000000	0.026085
1048.000000	0.025055
1046.000000	0.024069
1044.000000	0.023117
1042.000000	0.022181
1040.000000	0.021224
1038.000000	0.020244
1036.000000	0.019278
1034.000000	0.018338
1032.000000	0.017419
1030.000000	0.016533
1028.000000	0.015704
1026.000000	0.014964
1024.000000	0.014344
1022.000000	0.013853
1020.000000	0.013469
1018.000000	0.013160
1016.000000	0.012870
1014.000000	0.012558
1012.000000	0.012200
1010.000000	0.011764
1008.000000	0.011221
1006.000000	0.010567
1004.000000	0.009812
1002.000000	0.008981
1000.000000	0.008119
998.000000	0.007269
996.000000	0.006459
994.000000	0.005710
992.000000	0.005042
990.000000	0.004466
988.000000	0.003990
986.000000	0.003601
984.000000	0.003265
982.000000	0.002937
980.000000	0.002587
978.000000	0.002207
976.000000	0.001790
974.000000	0.001322
972.000000	0.000790
970.000000	0.000197
968.000000	-0.000420
966.000000	-0.001023
964.000000	-0.001587
962.000000	-0.002109
960.000000	-0.002584
958.000000	-0.003008
956.000000	-0.003405
954.000000	-0.003801
952.000000	-0.004212
950.000000	-0.004649
948.000000	-0.005118
946.000000	-0.005627
944.000000	-0.006189
942.000000	-0.006816
940.000000	-0.007493
938.000000	-0.008188
936.000000	-0.008889
934.000000	-0.009604
932.000000	-0.010326
930.000000	-0.011044
928.000000	-0.011746
926.000000	-0.012427
924.000000	-0.013082
922.000000	-0.013705
920.000000	-0.014295
918.000000	-0.014844
916.000000	-0.015357
914.000000	-0.015867
912.000000	-0.016404
910.000000	-0.016966
908.000000	-0.017534
906.000000	-0.018101
904.000000	-0.018658
902.000000	-0.019201
900.000000	-0.019728
898.000000	-0.020204
896.000000	-0.020566
894.000000	-0.020788
892.000000	-0.020878
890.000000	-0.020858
888.000000	-0.020737
886.000000	-0.020510
884.000000	-0.020177
882.000000	-0.019762
880.000000	-0.019308
878.000000	-0.018851
876.000000	-0.018411
874.000000	-0.017973
872.000000	-0.017512
870.000000	-0.017036
868.000000	-0.016562
866.000000	-0.016082
864.000000	-0.015569
862.000000	-0.014997
860.000000	-0.014331
858.000000	-0.013572
856.000000	-0.012778
854.000000	-0.011977
852.000000	-0.011153
850.000000	-0.010295
848.000000	-0.009421
846.000000	-0.008552
844.000000	-0.007716
842.000000	-0.006929
840.000000	-0.006164
838.000000	-0.005408
836.000000	-0.004700
834.000000	-0.004082
832.000000	-0.003567
830.000000	-0.003158
828.000000	-0.002864
826.000000	-0.002683
824.000000	-0.002603
822.000000	-0.002603
820.000000	-0.002657
818.000000	-0.002731
816.000000	-0.002795
814.000000	-0.002828
812.000000	-0.002812
810.000000	-0.002750
808.000000	-0.002668
806.000000	-0.002593
804.000000	-0.002528
802.000000	-0.002461
800.000000	-0.002397
798.000000	-0.002352
796.000000	-0.002332
794.000000	-0.002313
792.000000	-0.002271
790.000000	-0.002208
788.000000	-0.002126
786.000000	-0.002024
784.000000	-0.001900
782.000000	-0.001750
780.000000	-0.001575
778.000000	-0.001382
776.000000	-0.001154
774.000000	-0.000867
772.000000	-0.000517
770.000000	-0.000109
768.000000	0.000338
766.000000	0.000823
764.000000	0.001358
762.000000	0.001939
760.000000	0.002536
758.000000	0.003131
756.000000	0.003715
754.000000	0.004276
752.000000	0.004816
750.000000	0.005341
748.000000	0.005853
746.000000	0.006360
744.000000	0.006874
742.000000	0.007395
740.000000	0.007918
738.000000	0.008444
736.000000	0.008980
734.000000	0.009528
732.000000	0.010088
730.000000	0.010653
728.000000	0.011210
726.000000	0.011713
724.000000	0.012137
722.000000	0.012535
720.000000	0.012970
718.000000	0.013451
716.000000	0.013941
714.000000	0.014400
712.000000	0.014774
710.000000	0.015090
708.000000	0.015505
706.000000	0.016068
704.000000	0.016570
702.000000	0.016959
700.000000	0.017297
