PE IR       SUBTECH     SPECTRUM    ASCII       PEDS        4.00        
   -1
LS_9_unfl.asc
14/09/24
10:00:58.00
14/09/26
10:45:37.00
nystrom.12
Co-added spectrum 3 at 1430, -2320 (Image Marker 1)
700.000000
#HDR
-1
-1
#GR
cm-1
A
1.0
0.0
4000.000000
-2.000000
1651
8
0.107563
-0.095080
#DATA
4000.000000	0.037679
3998.000000	0.037057
3996.000000	0.036492
3994.000000	0.036035
3992.000000	0.035705
3990.000000	0.035514
3988.000000	0.035456
3986.000000	0.035545
3984.000000	0.035803
3982.000000	0.036180
3980.000000	0.036614
3978.000000	0.037046
3976.000000	0.037443
3974.000000	0.037841
3972.000000	0.038220
3970.000000	0.038513
3968.000000	0.038686
3966.000000	0.038724
3964.000000	0.038643
3962.000000	0.038455
3960.000000	0.038170
3958.000000	0.037850
3956.000000	0.037574
3954.000000	0.037414
3952.000000	0.037437
3950.000000	0.037653
3948.000000	0.037980
3946.000000	0.038300
3944.000000	0.038581
3942.000000	0.038835
3940.000000	0.038974
3938.000000	0.038912
3936.000000	0.038712
3934.000000	0.038553
3932.000000	0.038538
3930.000000	0.038600
3928.000000	0.038660
3926.000000	0.038771
3924.000000	0.039018
3922.000000	0.039352
3920.000000	0.039612
3918.000000	0.039733
3916.000000	0.039775
3914.000000	0.039780
3912.000000	0.039751
3910.000000	0.039693
3908.000000	0.039626
3906.000000	0.039601
3904.000000	0.039681
3902.000000	0.039907
3900.000000	0.040227
3898.000000	0.040513
3896.000000	0.040701
3894.000000	0.040837
3892.000000	0.040944
3890.000000	0.040909
3888.000000	0.040599
3886.000000	0.040157
3884.000000	0.039819
3882.000000	0.039587
3880.000000	0.039451
3878.000000	0.039435
3876.000000	0.039574
3874.000000	0.039948
3872.000000	0.040464
3870.000000	0.040974
3868.000000	0.041411
3866.000000	0.041705
3864.000000	0.041918
3862.000000	0.042077
3860.000000	0.042140
3858.000000	0.042166
3856.000000	0.042207
3854.000000	0.042268
3852.000000	0.042332
3850.000000	0.042329
3848.000000	0.042294
3846.000000	0.042314
3844.000000	0.042393
3842.000000	0.042519
3840.000000	0.042733
3838.000000	0.043036
3836.000000	0.043319
3834.000000	0.043439
3832.000000	0.043377
3830.000000	0.043161
3828.000000	0.042823
3826.000000	0.042426
3824.000000	0.042020
3822.000000	0.041740
3820.000000	0.041705
3818.000000	0.041800
3816.000000	0.041988
3814.000000	0.042210
3812.000000	0.042314
3810.000000	0.042305
3808.000000	0.042201
3806.000000	0.042004
3804.000000	0.041720
3802.000000	0.041396
3800.000000	0.041194
3798.000000	0.041164
3796.000000	0.041206
3794.000000	0.041232
3792.000000	0.041200
3790.000000	0.041125
3788.000000	0.040996
3786.000000	0.040805
3784.000000	0.040630
3782.000000	0.040569
3780.000000	0.040646
3778.000000	0.040836
3776.000000	0.041105
3774.000000	0.041407
3772.000000	0.041695
3770.000000	0.041924
3768.000000	0.042036
3766.000000	0.042093
3764.000000	0.042259
3762.000000	0.042664
3760.000000	0.043287
3758.000000	0.044011
3756.000000	0.044750
3754.000000	0.045514
3752.000000	0.046233
3750.000000	0.046615
3748.000000	0.046341
3746.000000	0.045610
3744.000000	0.044748
3742.000000	0.043830
3740.000000	0.042829
3738.000000	0.041878
3736.000000	0.041255
3734.000000	0.041167
3732.000000	0.041402
3730.000000	0.041620
3728.000000	0.041803
3726.000000	0.041987
3724.000000	0.042021
3722.000000	0.041805
3720.000000	0.041456
3718.000000	0.041156
3716.000000	0.040971
3714.000000	0.040833
3712.000000	0.040800
3710.000000	0.041041
3708.000000	0.041480
3706.000000	0.041878
3704.000000	0.042145
3702.000000	0.042392
3700.000000	0.042781
3698.000000	0.043235
3696.000000	0.043596
3694.000000	0.043851
3692.000000	0.044100
3690.000000	0.044402
3688.000000	0.044709
3686.000000	0.044957
3684.000000	0.045194
3682.000000	0.045570
3680.000000	0.046231
3678.000000	0.047179
3676.000000	0.048410
3674.000000	0.049856
3672.000000	0.051215
3670.000000	0.052452
3668.000000	0.053565
3666.000000	0.054480
3664.000000	0.055192
3662.000000	0.055727
3660.000000	0.056237
3658.000000	0.056911
3656.000000	0.057769
3654.000000	0.058728
3652.000000	0.059758
3650.000000	0.060920
3648.000000	0.062203
3646.000000	0.063444
3644.000000	0.064567
3642.000000	0.065570
3640.000000	0.066548
3638.000000	0.067558
3636.000000	0.068570
3634.000000	0.069568
3632.000000	0.070568
3630.000000	0.071681
3628.000000	0.073020
3626.000000	0.074355
3624.000000	0.075476
3622.000000	0.076423
3620.000000	0.077300
3618.000000	0.078210
3616.000000	0.079051
3614.000000	0.079745
3612.000000	0.080478
3610.000000	0.081333
3608.000000	0.082218
3606.000000	0.083053
3604.000000	0.083789
3602.000000	0.084384
3600.000000	0.084822
3598.000000	0.085164
3596.000000	0.085501
3594.000000	0.085888
3592.000000	0.086297
3590.000000	0.086707
3588.000000	0.087179
3586.000000	0.087704
3584.000000	0.088179
3582.000000	0.088574
3580.000000	0.088935
3578.000000	0.089396
3576.000000	0.090016
3574.000000	0.090703
3572.000000	0.091354
3570.000000	0.091927
3568.000000	0.092423
3566.000000	0.092802
3564.000000	0.092929
3562.000000	0.092862
3560.000000	0.092771
3558.000000	0.092772
3556.000000	0.092917
3554.000000	0.093176
3552.000000	0.093538
3550.000000	0.094023
3548.000000	0.094567
3546.000000	0.095116
3544.000000	0.095640
3542.000000	0.096142
3540.000000	0.096674
3538.000000	0.097213
3536.000000	0.097708
3534.000000	0.098176
3532.000000	0.098649
3530.000000	0.099111
3528.000000	0.099509
3526.000000	0.099828
3524.000000	0.100121
3522.000000	0.100424
3520.000000	0.100705
3518.000000	0.100947
3516.000000	0.101198
3514.000000	0.101510
3512.000000	0.101864
3510.000000	0.102231
3508.000000	0.102661
3506.000000	0.103174
3504.000000	0.103721
3502.000000	0.104238
3500.000000	0.104717
3498.000000	0.105239
3496.000000	0.105779
3494.000000	0.106216
3492.000000	0.106554
3490.000000	0.106866
3488.000000	0.107177
3486.000000	0.107429
3484.000000	0.107543
3482.000000	0.107563
3480.000000	0.107556
3478.000000	0.107487
3476.000000	0.107333
3474.000000	0.107093
3472.000000	0.106792
3470.000000	0.106498
3468.000000	0.106230
3466.000000	0.105985
3464.000000	0.105759
3462.000000	0.105535
3460.000000	0.105323
3458.000000	0.105131
3456.000000	0.104938
3454.000000	0.104720
3452.000000	0.104475
3450.000000	0.104215
3448.000000	0.103958
3446.000000	0.103677
3444.000000	0.103282
3442.000000	0.102699
3440.000000	0.101928
3438.000000	0.101006
3436.000000	0.099975
3434.000000	0.098847
3432.000000	0.097643
3430.000000	0.096443
3428.000000	0.095295
3426.000000	0.094203
3424.000000	0.093188
3422.000000	0.092252
3420.000000	0.091376
3418.000000	0.090566
3416.000000	0.089817
3414.000000	0.089077
3412.000000	0.088328
3410.000000	0.087580
3408.000000	0.086821
3406.000000	0.086041
3404.000000	0.085252
3402.000000	0.084543
3400.000000	0.084019
3398.000000	0.083634
3396.000000	0.083311
3394.000000	0.083076
3392.000000	0.082920
3390.000000	0.082754
3388.000000	0.082474
3386.000000	0.082045
3384.000000	0.081542
3382.000000	0.080999
3380.000000	0.080354
3378.000000	0.079639
3376.000000	0.078993
3374.000000	0.078497
3372.000000	0.078146
3370.000000	0.077864
3368.000000	0.077591
3366.000000	0.077344
3364.000000	0.077105
3362.000000	0.076794
3360.000000	0.076315
3358.000000	0.075662
3356.000000	0.074970
3354.000000	0.074365
3352.000000	0.073841
3350.000000	0.073340
3348.000000	0.072892
3346.000000	0.072580
3344.000000	0.072409
3342.000000	0.072261
3340.000000	0.072039
3338.000000	0.071773
3336.000000	0.071537
3334.000000	0.071309
3332.000000	0.071000
3330.000000	0.070613
3328.000000	0.070242
3326.000000	0.069931
3324.000000	0.069652
3322.000000	0.069420
3320.000000	0.069295
3318.000000	0.069284
3316.000000	0.069315
3314.000000	0.069328
3312.000000	0.069321
3310.000000	0.069264
3308.000000	0.069108
3306.000000	0.068867
3304.000000	0.068595
3302.000000	0.068341
3300.000000	0.068116
3298.000000	0.067905
3296.000000	0.067716
3294.000000	0.067532
3292.000000	0.067330
3290.000000	0.067110
3288.000000	0.066852
3286.000000	0.066535
3284.000000	0.066200
3282.000000	0.065903
3280.000000	0.065674
3278.000000	0.065512
3276.000000	0.065418
3274.000000	0.065392
3272.000000	0.065386
3270.000000	0.065325
3268.000000	0.065169
3266.000000	0.064924
3264.000000	0.064590
3262.000000	0.064166
3260.000000	0.063724
3258.000000	0.063349
3256.000000	0.063064
3254.000000	0.062854
3252.000000	0.062697
3250.000000	0.062606
3248.000000	0.062600
3246.000000	0.062645
3244.000000	0.062713
3242.000000	0.062782
3240.000000	0.062830
3238.000000	0.062836
3236.000000	0.062777
3234.000000	0.062636
3232.000000	0.062422
3230.000000	0.062159
3228.000000	0.061879
3226.000000	0.061613
3224.000000	0.061362
3222.000000	0.061131
3220.000000	0.060957
3218.000000	0.060825
3216.000000	0.060673
3214.000000	0.060502
3212.000000	0.060362
3210.000000	0.060251
3208.000000	0.060097
3206.000000	0.059834
3204.000000	0.059503
3202.000000	0.059186
3200.000000	0.058881
3198.000000	0.058542
3196.000000	0.058148
3194.000000	0.057717
3192.000000	0.057284
3190.000000	0.056866
3188.000000	0.056434
3186.000000	0.055979
3184.000000	0.055590
3182.000000	0.055346
3180.000000	0.055208
3178.000000	0.055110
3176.000000	0.055024
3174.000000	0.054927
3172.000000	0.054776
3170.000000	0.054525
3168.000000	0.054151
3166.000000	0.053683
3164.000000	0.053158
3162.000000	0.052564
3160.000000	0.051927
3158.000000	0.051321
3156.000000	0.050757
3154.000000	0.050232
3152.000000	0.049772
3150.000000	0.049422
3148.000000	0.049199
3146.000000	0.049039
3144.000000	0.048879
3142.000000	0.048726
3140.000000	0.048593
3138.000000	0.048462
3136.000000	0.048302
3134.000000	0.048135
3132.000000	0.048012
3130.000000	0.047925
3128.000000	0.047857
3126.000000	0.047831
3124.000000	0.047827
3122.000000	0.047773
3120.000000	0.047632
3118.000000	0.047416
3116.000000	0.047144
3114.000000	0.046827
3112.000000	0.046468
3110.000000	0.046111
3108.000000	0.045843
3106.000000	0.045665
3104.000000	0.045539
3102.000000	0.045456
3100.000000	0.045386
3098.000000	0.045305
3096.000000	0.045176
3094.000000	0.044975
3092.000000	0.044743
3090.000000	0.044514
3088.000000	0.044307
3086.000000	0.044124
3084.000000	0.043944
3082.000000	0.043764
3080.000000	0.043564
3078.000000	0.043313
3076.000000	0.043014
3074.000000	0.042673
3072.000000	0.042318
3070.000000	0.041993
3068.000000	0.041711
3066.000000	0.041500
3064.000000	0.041370
3062.000000	0.041277
3060.000000	0.041204
3058.000000	0.041139
3056.000000	0.041076
3054.000000	0.041026
3052.000000	0.040981
3050.000000	0.040915
3048.000000	0.040835
3046.000000	0.040771
3044.000000	0.040727
3042.000000	0.040670
3040.000000	0.040555
3038.000000	0.040380
3036.000000	0.040232
3034.000000	0.040172
3032.000000	0.040147
3030.000000	0.040131
3028.000000	0.040173
3026.000000	0.040292
3024.000000	0.040433
3022.000000	0.040500
3020.000000	0.040454
3018.000000	0.040323
3016.000000	0.040092
3014.000000	0.039723
3012.000000	0.039272
3010.000000	0.038810
3008.000000	0.038395
3006.000000	0.038073
3004.000000	0.037817
3002.000000	0.037637
3000.000000	0.037569
2998.000000	0.037593
2996.000000	0.037654
2994.000000	0.037666
2992.000000	0.037601
2990.000000	0.037522
2988.000000	0.037423
2986.000000	0.037229
2984.000000	0.036927
2982.000000	0.036605
2980.000000	0.036354
2978.000000	0.036178
2976.000000	0.036023
2974.000000	0.035862
2972.000000	0.035745
2970.000000	0.035703
2968.000000	0.035687
2966.000000	0.035651
2964.000000	0.035597
2962.000000	0.035584
2960.000000	0.035642
2958.000000	0.035735
2956.000000	0.035820
2954.000000	0.035854
2952.000000	0.035795
2950.000000	0.035641
2948.000000	0.035398
2946.000000	0.035082
2944.000000	0.034737
2942.000000	0.034421
2940.000000	0.034199
2938.000000	0.034082
2936.000000	0.034025
2934.000000	0.034004
2932.000000	0.034012
2930.000000	0.034034
2928.000000	0.034037
2926.000000	0.033977
2924.000000	0.033879
2922.000000	0.033775
2920.000000	0.033647
2918.000000	0.033497
2916.000000	0.033342
2914.000000	0.033198
2912.000000	0.033086
2910.000000	0.032987
2908.000000	0.032874
2906.000000	0.032762
2904.000000	0.032628
2902.000000	0.032409
2900.000000	0.032096
2898.000000	0.031764
2896.000000	0.031482
2894.000000	0.031228
2892.000000	0.030953
2890.000000	0.030681
2888.000000	0.030510
2886.000000	0.030448
2884.000000	0.030376
2882.000000	0.030252
2880.000000	0.030160
2878.000000	0.030176
2876.000000	0.030275
2874.000000	0.030398
2872.000000	0.030543
2870.000000	0.030715
2868.000000	0.030886
2866.000000	0.031001
2864.000000	0.031025
2862.000000	0.030994
2860.000000	0.030945
2858.000000	0.030852
2856.000000	0.030727
2854.000000	0.030603
2852.000000	0.030506
2850.000000	0.030449
2848.000000	0.030413
2846.000000	0.030386
2844.000000	0.030392
2842.000000	0.030458
2840.000000	0.030602
2838.000000	0.030793
2836.000000	0.030964
2834.000000	0.031073
2832.000000	0.031118
2830.000000	0.031146
2828.000000	0.031164
2826.000000	0.031144
2824.000000	0.031127
2822.000000	0.031158
2820.000000	0.031238
2818.000000	0.031376
2816.000000	0.031529
2814.000000	0.031639
2812.000000	0.031703
2810.000000	0.031736
2808.000000	0.031759
2806.000000	0.031804
2804.000000	0.031868
2802.000000	0.031957
2800.000000	0.032091
2798.000000	0.032246
2796.000000	0.032376
2794.000000	0.032464
2792.000000	0.032487
2790.000000	0.032422
2788.000000	0.032287
2786.000000	0.032111
2784.000000	0.031880
2782.000000	0.031594
2780.000000	0.031298
2778.000000	0.031069
2776.000000	0.030970
2774.000000	0.031008
2772.000000	0.031193
2770.000000	0.031534
2768.000000	0.031971
2766.000000	0.032422
2764.000000	0.032811
2762.000000	0.033055
2760.000000	0.033118
2758.000000	0.033016
2756.000000	0.032811
2754.000000	0.032587
2752.000000	0.032377
2750.000000	0.032213
2748.000000	0.032141
2746.000000	0.032144
2744.000000	0.032174
2742.000000	0.032224
2740.000000	0.032283
2738.000000	0.032308
2736.000000	0.032275
2734.000000	0.032207
2732.000000	0.032163
2730.000000	0.032175
2728.000000	0.032203
2726.000000	0.032236
2724.000000	0.032330
2722.000000	0.032504
2720.000000	0.032732
2718.000000	0.032976
2716.000000	0.033207
2714.000000	0.033427
2712.000000	0.033616
2710.000000	0.033733
2708.000000	0.033787
2706.000000	0.033802
2704.000000	0.033782
2702.000000	0.033735
2700.000000	0.033684
2698.000000	0.033657
2696.000000	0.033670
2694.000000	0.033706
2692.000000	0.033764
2690.000000	0.033872
2688.000000	0.034038
2686.000000	0.034243
2684.000000	0.034463
2682.000000	0.034664
2680.000000	0.034821
2678.000000	0.034894
2676.000000	0.034859
2674.000000	0.034738
2672.000000	0.034535
2670.000000	0.034288
2668.000000	0.034060
2666.000000	0.033880
2664.000000	0.033783
2662.000000	0.033799
2660.000000	0.033940
2658.000000	0.034207
2656.000000	0.034549
2654.000000	0.034911
2652.000000	0.035258
2650.000000	0.035549
2648.000000	0.035764
2646.000000	0.035902
2644.000000	0.035965
2642.000000	0.035966
2640.000000	0.035942
2638.000000	0.035949
2636.000000	0.035996
2634.000000	0.036045
2632.000000	0.036077
2630.000000	0.036113
2628.000000	0.036193
2626.000000	0.036317
2624.000000	0.036443
2622.000000	0.036555
2620.000000	0.036656
2618.000000	0.036740
2616.000000	0.036806
2614.000000	0.036852
2612.000000	0.036870
2610.000000	0.036854
2608.000000	0.036831
2606.000000	0.036850
2604.000000	0.036946
2602.000000	0.037101
2600.000000	0.037271
2598.000000	0.037448
2596.000000	0.037628
2594.000000	0.037779
2592.000000	0.037891
2590.000000	0.037984
2588.000000	0.038058
2586.000000	0.038094
2584.000000	0.038111
2582.000000	0.038125
2580.000000	0.038113
2578.000000	0.038055
2576.000000	0.037938
2574.000000	0.037773
2572.000000	0.037585
2570.000000	0.037378
2568.000000	0.037173
2566.000000	0.037007
2564.000000	0.036869
2562.000000	0.036739
2560.000000	0.036611
2558.000000	0.036488
2556.000000	0.036380
2554.000000	0.036305
2552.000000	0.036273
2550.000000	0.036284
2548.000000	0.036319
2546.000000	0.036361
2544.000000	0.036413
2542.000000	0.036478
2540.000000	0.036546
2538.000000	0.036635
2536.000000	0.036784
2534.000000	0.037006
2532.000000	0.037283
2530.000000	0.037565
2528.000000	0.037802
2526.000000	0.037961
2524.000000	0.038025
2522.000000	0.037979
2520.000000	0.037842
2518.000000	0.037679
2516.000000	0.037509
2514.000000	0.037342
2512.000000	0.037225
2510.000000	0.037139
2508.000000	0.037028
2506.000000	0.036889
2504.000000	0.036752
2502.000000	0.036651
2500.000000	0.036588
2498.000000	0.036533
2496.000000	0.036512
2494.000000	0.036584
2492.000000	0.036727
2490.000000	0.036862
2488.000000	0.036942
2486.000000	0.036976
2484.000000	0.036967
2482.000000	0.036860
2480.000000	0.036624
2478.000000	0.036295
2476.000000	0.035930
2474.000000	0.035575
2472.000000	0.035257
2470.000000	0.035007
2468.000000	0.034851
2466.000000	0.034788
2464.000000	0.034796
2462.000000	0.034841
2460.000000	0.034871
2458.000000	0.034851
2456.000000	0.034784
2454.000000	0.034688
2452.000000	0.034571
2450.000000	0.034419
2448.000000	0.034256
2446.000000	0.034145
2444.000000	0.034089
2442.000000	0.034037
2440.000000	0.033961
2438.000000	0.033868
2436.000000	0.033773
2434.000000	0.033681
2432.000000	0.033567
2430.000000	0.033440
2428.000000	0.033370
2426.000000	0.033396
2424.000000	0.033492
2422.000000	0.033614
2420.000000	0.033729
2418.000000	0.033849
2416.000000	0.033948
2414.000000	0.033954
2412.000000	0.033844
2410.000000	0.033647
2408.000000	0.033401
2406.000000	0.033110
2404.000000	0.032775
2402.000000	0.032446
2400.000000	0.032164
2398.000000	0.031934
2396.000000	0.031738
2394.000000	0.031548
2392.000000	0.031385
2390.000000	0.031260
2388.000000	0.031153
2386.000000	0.031051
2384.000000	0.030930
2382.000000	0.030792
2380.000000	0.030643
2378.000000	0.030455
2376.000000	0.030248
2374.000000	0.030009
2372.000000	0.029674
2370.000000	0.029270
2368.000000	0.028851
2366.000000	0.028481
2364.000000	0.028176
2362.000000	0.027805
2360.000000	0.027452
2358.000000	0.027361
2356.000000	0.027530
2354.000000	0.027792
2352.000000	0.028072
2350.000000	0.028376
2348.000000	0.028680
2346.000000	0.028880
2344.000000	0.028919
2342.000000	0.028871
2340.000000	0.028773
2338.000000	0.028682
2336.000000	0.028748
2334.000000	0.029037
2332.000000	0.029441
2330.000000	0.029757
2328.000000	0.029859
2326.000000	0.029785
2324.000000	0.029534
2322.000000	0.029026
2320.000000	0.028277
2318.000000	0.027429
2316.000000	0.026654
2314.000000	0.026046
2312.000000	0.025577
2310.000000	0.025215
2308.000000	0.024969
2306.000000	0.024811
2304.000000	0.024669
2302.000000	0.024483
2300.000000	0.024234
2298.000000	0.023955
2296.000000	0.023676
2294.000000	0.023366
2292.000000	0.023024
2290.000000	0.022707
2288.000000	0.022434
2286.000000	0.022165
2284.000000	0.021890
2282.000000	0.021672
2280.000000	0.021557
2278.000000	0.021509
2276.000000	0.021464
2274.000000	0.021432
2272.000000	0.021447
2270.000000	0.021463
2268.000000	0.021405
2266.000000	0.021259
2264.000000	0.021063
2262.000000	0.020846
2260.000000	0.020586
2258.000000	0.020261
2256.000000	0.019904
2254.000000	0.019548
2252.000000	0.019214
2250.000000	0.018906
2248.000000	0.018629
2246.000000	0.018410
2244.000000	0.018280
2242.000000	0.018226
2240.000000	0.018219
2238.000000	0.018238
2236.000000	0.018249
2234.000000	0.018227
2232.000000	0.018165
2230.000000	0.018037
2228.000000	0.017830
2226.000000	0.017561
2224.000000	0.017248
2222.000000	0.016900
2220.000000	0.016503
2218.000000	0.016047
2216.000000	0.015587
2214.000000	0.015190
2212.000000	0.014869
2210.000000	0.014608
2208.000000	0.014425
2206.000000	0.014330
2204.000000	0.014311
2202.000000	0.014328
2200.000000	0.014331
2198.000000	0.014331
2196.000000	0.014335
2194.000000	0.014317
2192.000000	0.014279
2190.000000	0.014229
2188.000000	0.014161
2186.000000	0.014037
2184.000000	0.013815
2182.000000	0.013545
2180.000000	0.013300
2178.000000	0.013075
2176.000000	0.012838
2174.000000	0.012596
2172.000000	0.012376
2170.000000	0.012185
2168.000000	0.011982
2166.000000	0.011752
2164.000000	0.011521
2162.000000	0.011300
2160.000000	0.011078
2158.000000	0.010855
2156.000000	0.010645
2154.000000	0.010430
2152.000000	0.010191
2150.000000	0.009943
2148.000000	0.009717
2146.000000	0.009540
2144.000000	0.009432
2142.000000	0.009373
2140.000000	0.009337
2138.000000	0.009318
2136.000000	0.009310
2134.000000	0.009306
2132.000000	0.009258
2130.000000	0.009123
2128.000000	0.008937
2126.000000	0.008741
2124.000000	0.008533
2122.000000	0.008296
2120.000000	0.008010
2118.000000	0.007679
2116.000000	0.007309
2114.000000	0.006878
2112.000000	0.006357
2110.000000	0.005749
2108.000000	0.005085
2106.000000	0.004408
2104.000000	0.003751
2102.000000	0.003123
2100.000000	0.002530
2098.000000	0.001995
2096.000000	0.001546
2094.000000	0.001195
2092.000000	0.000934
2090.000000	0.000730
2088.000000	0.000576
2086.000000	0.000480
2084.000000	0.000418
2082.000000	0.000347
2080.000000	0.000226
2078.000000	0.000038
2076.000000	-0.000183
2074.000000	-0.000392
2072.000000	-0.000581
2070.000000	-0.000748
2068.000000	-0.000867
2066.000000	-0.000915
2064.000000	-0.000902
2062.000000	-0.000871
2060.000000	-0.000854
2058.000000	-0.000852
2056.000000	-0.000881
2054.000000	-0.000971
2052.000000	-0.001119
2050.000000	-0.001286
2048.000000	-0.001440
2046.000000	-0.001600
2044.000000	-0.001805
2042.000000	-0.002036
2040.000000	-0.002263
2038.000000	-0.002485
2036.000000	-0.002719
2034.000000	-0.002972
2032.000000	-0.003209
2030.000000	-0.003387
2028.000000	-0.003516
2026.000000	-0.003611
2024.000000	-0.003660
2022.000000	-0.003662
2020.000000	-0.003638
2018.000000	-0.003609
2016.000000	-0.003582
2014.000000	-0.003557
2012.000000	-0.003558
2010.000000	-0.003623
2008.000000	-0.003739
2006.000000	-0.003868
2004.000000	-0.004002
2002.000000	-0.004160
2000.000000	-0.004357
1998.000000	-0.004576
1996.000000	-0.004777
1994.000000	-0.004951
1992.000000	-0.005142
1990.000000	-0.005367
1988.000000	-0.005580
1986.000000	-0.005739
1984.000000	-0.005845
1982.000000	-0.005920
1980.000000	-0.005972
1978.000000	-0.005981
1976.000000	-0.005942
1974.000000	-0.005896
1972.000000	-0.005882
1970.000000	-0.005887
1968.000000	-0.005888
1966.000000	-0.005886
1964.000000	-0.005887
1962.000000	-0.005891
1960.000000	-0.005890
1958.000000	-0.005889
1956.000000	-0.005909
1954.000000	-0.005942
1952.000000	-0.005979
1950.000000	-0.006047
1948.000000	-0.006167
1946.000000	-0.006327
1944.000000	-0.006490
1942.000000	-0.006648
1940.000000	-0.006831
1938.000000	-0.007037
1936.000000	-0.007207
1934.000000	-0.007286
1932.000000	-0.007285
1930.000000	-0.007237
1928.000000	-0.007161
1926.000000	-0.007061
1924.000000	-0.006943
1922.000000	-0.006854
1920.000000	-0.006837
1918.000000	-0.006889
1916.000000	-0.007001
1914.000000	-0.007174
1912.000000	-0.007391
1910.000000	-0.007605
1908.000000	-0.007780
1906.000000	-0.007925
1904.000000	-0.008054
1902.000000	-0.008146
1900.000000	-0.008178
1898.000000	-0.008194
1896.000000	-0.008279
1894.000000	-0.008444
1892.000000	-0.008625
1890.000000	-0.008803
1888.000000	-0.009010
1886.000000	-0.009252
1884.000000	-0.009472
1882.000000	-0.009605
1880.000000	-0.009686
1878.000000	-0.009780
1876.000000	-0.009893
1874.000000	-0.010005
1872.000000	-0.010091
1870.000000	-0.010168
1868.000000	-0.010283
1866.000000	-0.010396
1864.000000	-0.010442
1862.000000	-0.010419
1860.000000	-0.010359
1858.000000	-0.010298
1856.000000	-0.010256
1854.000000	-0.010226
1852.000000	-0.010219
1850.000000	-0.010265
1848.000000	-0.010356
1846.000000	-0.010453
1844.000000	-0.010536
1842.000000	-0.010575
1840.000000	-0.010534
1838.000000	-0.010414
1836.000000	-0.010241
1834.000000	-0.010066
1832.000000	-0.009908
1830.000000	-0.009749
1828.000000	-0.009610
1826.000000	-0.009554
1824.000000	-0.009591
1822.000000	-0.009681
1820.000000	-0.009788
1818.000000	-0.009909
1816.000000	-0.010052
1814.000000	-0.010196
1812.000000	-0.010303
1810.000000	-0.010365
1808.000000	-0.010380
1806.000000	-0.010348
1804.000000	-0.010284
1802.000000	-0.010199
1800.000000	-0.010109
1798.000000	-0.010036
1796.000000	-0.009991
1794.000000	-0.009993
1792.000000	-0.010051
1790.000000	-0.010134
1788.000000	-0.010203
1786.000000	-0.010235
1784.000000	-0.010214
1782.000000	-0.010136
1780.000000	-0.010007
1778.000000	-0.009828
1776.000000	-0.009632
1774.000000	-0.009461
1772.000000	-0.009317
1770.000000	-0.009200
1768.000000	-0.009098
1766.000000	-0.008976
1764.000000	-0.008816
1762.000000	-0.008595
1760.000000	-0.008316
1758.000000	-0.008024
1756.000000	-0.007735
1754.000000	-0.007444
1752.000000	-0.007147
1750.000000	-0.006841
1748.000000	-0.006556
1746.000000	-0.006285
1744.000000	-0.006001
1742.000000	-0.005736
1740.000000	-0.005550
1738.000000	-0.005490
1736.000000	-0.005552
1734.000000	-0.005712
1732.000000	-0.005965
1730.000000	-0.006258
1728.000000	-0.006484
1726.000000	-0.006551
1724.000000	-0.006466
1722.000000	-0.006268
1720.000000	-0.005952
1718.000000	-0.005507
1716.000000	-0.004984
1714.000000	-0.004504
1712.000000	-0.004137
1710.000000	-0.003848
1708.000000	-0.003565
1706.000000	-0.003285
1704.000000	-0.003056
1702.000000	-0.002880
1700.000000	-0.002708
1698.000000	-0.002463
1696.000000	-0.002100
1694.000000	-0.001683
1692.000000	-0.001249
1690.000000	-0.000788
1688.000000	-0.000311
1686.000000	0.000121
1684.000000	0.000411
1682.000000	0.000489
1680.000000	0.000453
1678.000000	0.000380
1676.000000	0.000291
1674.000000	0.000231
1672.000000	0.000308
1670.000000	0.000594
1668.000000	0.001035
1666.000000	0.001535
1664.000000	0.002100
1662.000000	0.002744
1660.000000	0.003463
1658.000000	0.004194
1656.000000	0.004896
1654.000000	0.005616
1652.000000	0.006390
1650.000000	0.007188
1648.000000	0.008000
1646.000000	0.008803
1644.000000	0.009644
1642.000000	0.010612
1640.000000	0.011743
1638.000000	0.013061
1636.000000	0.014655
1634.000000	0.016655
1632.000000	0.019084
1630.000000	0.021887
1628.000000	0.025031
1626.000000	0.028475
1624.000000	0.032125
1622.000000	0.035774
1620.000000	0.039179
1618.000000	0.042250
1616.000000	0.044897
1614.000000	0.046902
1612.000000	0.048115
1610.000000	0.048478
1608.000000	0.047994
1606.000000	0.046725
1604.000000	0.044751
1602.000000	0.042206
1600.000000	0.039287
1598.000000	0.036180
1596.000000	0.033050
1594.000000	0.030027
1592.000000	0.027189
1590.000000	0.024568
1588.000000	0.022197
1586.000000	0.020108
1584.000000	0.018316
1582.000000	0.016815
1580.000000	0.015583
1578.000000	0.014605
1576.000000	0.013871
1574.000000	0.013372
1572.000000	0.013094
1570.000000	0.012984
1568.000000	0.012909
1566.000000	0.012791
1564.000000	0.012601
1562.000000	0.012323
1560.000000	0.011926
1558.000000	0.011316
1556.000000	0.010532
1554.000000	0.009770
1552.000000	0.009140
1550.000000	0.008660
1548.000000	0.008298
1546.000000	0.008035
1544.000000	0.007856
1542.000000	0.007726
1540.000000	0.007603
1538.000000	0.007436
1536.000000	0.007232
1534.000000	0.007022
1532.000000	0.006844
1530.000000	0.006738
1528.000000	0.006663
1526.000000	0.006569
1524.000000	0.006475
1522.000000	0.006404
1520.000000	0.006427
1518.000000	0.006578
1516.000000	0.006763
1514.000000	0.006954
1512.000000	0.007176
1510.000000	0.007423
1508.000000	0.007605
1506.000000	0.007553
1504.000000	0.007300
1502.000000	0.007039
1500.000000	0.006822
1498.000000	0.006603
1496.000000	0.006313
1494.000000	0.006002
1492.000000	0.005751
1490.000000	0.005507
1488.000000	0.005207
1486.000000	0.004903
1484.000000	0.004640
1482.000000	0.004428
1480.000000	0.004271
1478.000000	0.004192
1476.000000	0.004177
1474.000000	0.004155
1472.000000	0.004058
1470.000000	0.003913
1468.000000	0.003768
1466.000000	0.003601
1464.000000	0.003374
1462.000000	0.003115
1460.000000	0.002881
1458.000000	0.002668
1456.000000	0.002414
1454.000000	0.002161
1452.000000	0.001955
1450.000000	0.001806
1448.000000	0.001675
1446.000000	0.001516
1444.000000	0.001346
1442.000000	0.001202
1440.000000	0.001077
1438.000000	0.000967
1436.000000	0.000880
1434.000000	0.000856
1432.000000	0.000918
1430.000000	0.001018
1428.000000	0.001117
1426.000000	0.001194
1424.000000	0.001219
1422.000000	0.001162
1420.000000	0.000999
1418.000000	0.000744
1416.000000	0.000444
1414.000000	0.000110
1412.000000	-0.000254
1410.000000	-0.000620
1408.000000	-0.000951
1406.000000	-0.001222
1404.000000	-0.001440
1402.000000	-0.001621
1400.000000	-0.001774
1398.000000	-0.001904
1396.000000	-0.002019
1394.000000	-0.002140
1392.000000	-0.002293
1390.000000	-0.002471
1388.000000	-0.002651
1386.000000	-0.002828
1384.000000	-0.003013
1382.000000	-0.003207
1380.000000	-0.003382
1378.000000	-0.003506
1376.000000	-0.003590
1374.000000	-0.003670
1372.000000	-0.003743
1370.000000	-0.003802
1368.000000	-0.003870
1366.000000	-0.003987
1364.000000	-0.004177
1362.000000	-0.004423
1360.000000	-0.004707
1358.000000	-0.005034
1356.000000	-0.005392
1354.000000	-0.005741
1352.000000	-0.006035
1350.000000	-0.006249
1348.000000	-0.006398
1346.000000	-0.006489
1344.000000	-0.006508
1342.000000	-0.006469
1340.000000	-0.006413
1338.000000	-0.006382
1336.000000	-0.006408
1334.000000	-0.006488
1332.000000	-0.006591
1330.000000	-0.006710
1328.000000	-0.006848
1326.000000	-0.006999
1324.000000	-0.007141
1322.000000	-0.007241
1320.000000	-0.007301
1318.000000	-0.007372
1316.000000	-0.007465
1314.000000	-0.007552
1312.000000	-0.007619
1310.000000	-0.007672
1308.000000	-0.007718
1306.000000	-0.007750
1304.000000	-0.007756
1302.000000	-0.007740
1300.000000	-0.007725
1298.000000	-0.007736
1296.000000	-0.007778
1294.000000	-0.007837
1292.000000	-0.007909
1290.000000	-0.007992
1288.000000	-0.008066
1286.000000	-0.008091
1284.000000	-0.008036
1282.000000	-0.007906
1280.000000	-0.007709
1278.000000	-0.007433
1276.000000	-0.007081
1274.000000	-0.006697
1272.000000	-0.006317
1270.000000	-0.005948
1268.000000	-0.005571
1266.000000	-0.005147
1264.000000	-0.004653
1262.000000	-0.004044
1260.000000	-0.003257
1258.000000	-0.002270
1256.000000	-0.001093
1254.000000	0.000255
1252.000000	0.001741
1250.000000	0.003352
1248.000000	0.005083
1246.000000	0.006939
1244.000000	0.008952
1242.000000	0.011161
1240.000000	0.013604
1238.000000	0.016335
1236.000000	0.019394
1234.000000	0.022780
1232.000000	0.026455
1230.000000	0.030355
1228.000000	0.034420
1226.000000	0.038569
1224.000000	0.042681
1222.000000	0.046644
1220.000000	0.050379
1218.000000	0.053825
1216.000000	0.056941
1214.000000	0.059700
1212.000000	0.062100
1210.000000	0.064148
1208.000000	0.065845
1206.000000	0.067227
1204.000000	0.068372
1202.000000	0.069331
1200.000000	0.070133
1198.000000	0.070833
1196.000000	0.071490
1194.000000	0.072125
1192.000000	0.072720
1190.000000	0.073254
1188.000000	0.073734
1186.000000	0.074157
1184.000000	0.074494
1182.000000	0.074729
1180.000000	0.074885
1178.000000	0.075000
1176.000000	0.075088
1174.000000	0.075173
1172.000000	0.075304
1170.000000	0.075503
1168.000000	0.075750
1166.000000	0.076036
1164.000000	0.076371
1162.000000	0.076739
1160.000000	0.077099
1158.000000	0.077426
1156.000000	0.077719
1154.000000	0.077982
1152.000000	0.078210
1150.000000	0.078409
1148.000000	0.078602
1146.000000	0.078771
1144.000000	0.078892
1142.000000	0.078974
1140.000000	0.079003
1138.000000	0.078958
1136.000000	0.078829
1134.000000	0.078612
1132.000000	0.078334
1130.000000	0.078038
1128.000000	0.077756
1126.000000	0.077508
1124.000000	0.077310
1122.000000	0.077215
1120.000000	0.077278
1118.000000	0.077500
1116.000000	0.077854
1114.000000	0.078325
1112.000000	0.078899
1110.000000	0.079538
1108.000000	0.080147
1106.000000	0.080658
1104.000000	0.081077
1102.000000	0.081428
1100.000000	0.081710
1098.000000	0.081938
1096.000000	0.082206
1094.000000	0.082620
1092.000000	0.083233
1090.000000	0.084033
1088.000000	0.085022
1086.000000	0.086284
1084.000000	0.087823
1082.000000	0.089487
1080.000000	0.091133
1078.000000	0.092701
1076.000000	0.094136
1074.000000	0.095297
1072.000000	0.096033
1070.000000	0.096285
1068.000000	0.096070
1066.000000	0.095463
1064.000000	0.094527
1062.000000	0.093305
1060.000000	0.091864
1058.000000	0.090266
1056.000000	0.088594
1054.000000	0.086928
1052.000000	0.085244
1050.000000	0.083492
1048.000000	0.081710
1046.000000	0.079966
1044.000000	0.078245
1042.000000	0.076464
1040.000000	0.074578
1038.000000	0.072621
1036.000000	0.070616
1034.000000	0.068514
1032.000000	0.066271
1030.000000	0.063960
1028.000000	0.061736
1026.000000	0.059669
1024.000000	0.057771
1022.000000	0.056091
1020.000000	0.054697
1018.000000	0.053605
1016.000000	0.052728
1014.000000	0.051940
1012.000000	0.051139
1010.000000	0.050239
1008.000000	0.049186
1006.000000	0.047947
1004.000000	0.046483
1002.000000	0.044797
1000.000000	0.042938
998.000000	0.040967
996.000000	0.038933
994.000000	0.036850
992.000000	0.034727
990.000000	0.032600
988.000000	0.030506
986.000000	0.028468
984.000000	0.026508
982.000000	0.024643
980.000000	0.022893
978.000000	0.021259
976.000000	0.019704
974.000000	0.018210
972.000000	0.016772
970.000000	0.015370
968.000000	0.013978
966.000000	0.012597
964.000000	0.011258
962.000000	0.009973
960.000000	0.008722
958.000000	0.007489
956.000000	0.006285
954.000000	0.005122
952.000000	0.003979
950.000000	0.002823
948.000000	0.001666
946.000000	0.000544
944.000000	-0.000557
942.000000	-0.001684
940.000000	-0.002859
938.000000	-0.004070
936.000000	-0.005323
934.000000	-0.006618
932.000000	-0.007911
930.000000	-0.009142
928.000000	-0.010288
926.000000	-0.011360
924.000000	-0.012360
922.000000	-0.013281
920.000000	-0.014164
918.000000	-0.015070
916.000000	-0.016016
914.000000	-0.016974
912.000000	-0.017903
910.000000	-0.018796
908.000000	-0.019686
906.000000	-0.020599
904.000000	-0.021529
902.000000	-0.022482
900.000000	-0.023502
898.000000	-0.024612
896.000000	-0.025802
894.000000	-0.027065
892.000000	-0.028382
890.000000	-0.029725
888.000000	-0.031071
886.000000	-0.032373
884.000000	-0.033563
882.000000	-0.034548
880.000000	-0.035211
878.000000	-0.035491
876.000000	-0.035384
874.000000	-0.034884
872.000000	-0.034042
870.000000	-0.032992
868.000000	-0.031897
866.000000	-0.030902
864.000000	-0.030104
862.000000	-0.029579
860.000000	-0.029388
858.000000	-0.029527
856.000000	-0.029923
854.000000	-0.030503
852.000000	-0.031208
850.000000	-0.031992
848.000000	-0.032840
846.000000	-0.033745
844.000000	-0.034681
842.000000	-0.035623
840.000000	-0.036581
838.000000	-0.037585
836.000000	-0.038592
834.000000	-0.039522
832.000000	-0.040391
830.000000	-0.041271
828.000000	-0.042202
826.000000	-0.043164
824.000000	-0.044128
822.000000	-0.045143
820.000000	-0.046262
818.000000	-0.047438
816.000000	-0.048616
814.000000	-0.049819
812.000000	-0.051100
810.000000	-0.052473
808.000000	-0.053915
806.000000	-0.055428
804.000000	-0.057069
802.000000	-0.058859
800.000000	-0.060737
798.000000	-0.062660
796.000000	-0.064628
794.000000	-0.066636
792.000000	-0.068641
790.000000	-0.070574
788.000000	-0.072399
786.000000	-0.074109
784.000000	-0.075703
782.000000	-0.077173
780.000000	-0.078511
778.000000	-0.079717
776.000000	-0.080818
774.000000	-0.081844
772.000000	-0.082800
770.000000	-0.083657
768.000000	-0.084438
766.000000	-0.085209
764.000000	-0.085950
762.000000	-0.086574
760.000000	-0.087040
758.000000	-0.087376
756.000000	-0.087594
754.000000	-0.087636
752.000000	-0.087455
750.000000	-0.087112
748.000000	-0.086719
746.000000	-0.086281
744.000000	-0.085789
742.000000	-0.085352
740.000000	-0.085049
738.000000	-0.084844
736.000000	-0.084716
734.000000	-0.084643
732.000000	-0.084533
730.000000	-0.084301
728.000000	-0.083862
726.000000	-0.083111
724.000000	-0.081944
722.000000	-0.080335
720.000000	-0.078492
718.000000	-0.076758
716.000000	-0.075285
714.000000	-0.074121
712.000000	-0.073692
710.000000	-0.074508
708.000000	-0.076651
706.000000	-0.079912
704.000000	-0.084125
702.000000	-0.089234
700.000000	-0.095080
