PE IR       SUBTECH     SPECTRUM    ASCII       PEDS        4.00        
   -1
mix5050_5.asc
14/09/23
15:05:57.00
14/10/15
13:05:08.00
nystrom.12
Co-added spectrum 1 at -883, -2261 (Image Marker 1)
700.000000
#HDR
-1
-1
#GR
cm-1
A
1.0
0.0
4000.000000
-2.000000
1651
8
0.049780
-0.005233
#DATA
4000.000000	-0.001082
3998.000000	-0.000693
3996.000000	-0.000325
3994.000000	0.000000
3992.000000	0.000301
3990.000000	0.000580
3988.000000	0.000844
3986.000000	0.001065
3984.000000	0.001247
3982.000000	0.001451
3980.000000	0.001718
3978.000000	0.002015
3976.000000	0.002293
3974.000000	0.002530
3972.000000	0.002719
3970.000000	0.002881
3968.000000	0.003022
3966.000000	0.003108
3964.000000	0.003107
3962.000000	0.003031
3960.000000	0.002893
3958.000000	0.002698
3956.000000	0.002463
3954.000000	0.002211
3952.000000	0.001956
3950.000000	0.001713
3948.000000	0.001488
3946.000000	0.001264
3944.000000	0.001029
3942.000000	0.000844
3940.000000	0.000754
3938.000000	0.000701
3936.000000	0.000636
3934.000000	0.000591
3932.000000	0.000596
3930.000000	0.000637
3928.000000	0.000719
3926.000000	0.000845
3924.000000	0.000986
3922.000000	0.001136
3920.000000	0.001326
3918.000000	0.001558
3916.000000	0.001778
3914.000000	0.001957
3912.000000	0.002119
3910.000000	0.002274
3908.000000	0.002414
3906.000000	0.002539
3904.000000	0.002645
3902.000000	0.002718
3900.000000	0.002782
3898.000000	0.002889
3896.000000	0.002998
3894.000000	0.003073
3892.000000	0.003146
3890.000000	0.003243
3888.000000	0.003307
3886.000000	0.003276
3884.000000	0.003164
3882.000000	0.003045
3880.000000	0.002964
3878.000000	0.002880
3876.000000	0.002709
3874.000000	0.002429
3872.000000	0.002130
3870.000000	0.001967
3868.000000	0.002014
3866.000000	0.002150
3864.000000	0.002263
3862.000000	0.002370
3860.000000	0.002561
3858.000000	0.002890
3856.000000	0.003338
3854.000000	0.003820
3852.000000	0.004220
3850.000000	0.004500
3848.000000	0.004731
3846.000000	0.004971
3844.000000	0.005196
3842.000000	0.005363
3840.000000	0.005491
3838.000000	0.005581
3836.000000	0.005607
3834.000000	0.005594
3832.000000	0.005544
3830.000000	0.005448
3828.000000	0.005340
3826.000000	0.005267
3824.000000	0.005194
3822.000000	0.005064
3820.000000	0.004888
3818.000000	0.004741
3816.000000	0.004730
3814.000000	0.004868
3812.000000	0.005063
3810.000000	0.005229
3808.000000	0.005325
3806.000000	0.005403
3804.000000	0.005507
3802.000000	0.005612
3800.000000	0.005681
3798.000000	0.005639
3796.000000	0.005465
3794.000000	0.005268
3792.000000	0.005158
3790.000000	0.005132
3788.000000	0.005139
3786.000000	0.005170
3784.000000	0.005238
3782.000000	0.005330
3780.000000	0.005451
3778.000000	0.005576
3776.000000	0.005657
3774.000000	0.005688
3772.000000	0.005693
3770.000000	0.005690
3768.000000	0.005659
3766.000000	0.005608
3764.000000	0.005598
3762.000000	0.005640
3760.000000	0.005713
3758.000000	0.005821
3756.000000	0.005966
3754.000000	0.006105
3752.000000	0.006201
3750.000000	0.006240
3748.000000	0.006191
3746.000000	0.006078
3744.000000	0.005961
3742.000000	0.005796
3740.000000	0.005504
3738.000000	0.005127
3736.000000	0.004766
3734.000000	0.004442
3732.000000	0.004157
3730.000000	0.003907
3728.000000	0.003589
3726.000000	0.003208
3724.000000	0.002904
3722.000000	0.002775
3720.000000	0.002780
3718.000000	0.002865
3716.000000	0.003024
3714.000000	0.003264
3712.000000	0.003634
3710.000000	0.004146
3708.000000	0.004670
3706.000000	0.005116
3704.000000	0.005487
3702.000000	0.005791
3700.000000	0.006015
3698.000000	0.006156
3696.000000	0.006226
3694.000000	0.006260
3692.000000	0.006328
3690.000000	0.006447
3688.000000	0.006568
3686.000000	0.006654
3684.000000	0.006696
3682.000000	0.006702
3680.000000	0.006680
3678.000000	0.006592
3676.000000	0.006368
3674.000000	0.005988
3672.000000	0.005554
3670.000000	0.005168
3668.000000	0.004865
3666.000000	0.004636
3664.000000	0.004456
3662.000000	0.004312
3660.000000	0.004242
3658.000000	0.004290
3656.000000	0.004425
3654.000000	0.004554
3652.000000	0.004611
3650.000000	0.004598
3648.000000	0.004547
3646.000000	0.004508
3644.000000	0.004493
3642.000000	0.004493
3640.000000	0.004490
3638.000000	0.004459
3636.000000	0.004402
3634.000000	0.004354
3632.000000	0.004322
3630.000000	0.004261
3628.000000	0.004139
3626.000000	0.003930
3624.000000	0.003682
3622.000000	0.003472
3620.000000	0.003318
3618.000000	0.003183
3616.000000	0.003101
3614.000000	0.003130
3612.000000	0.003284
3610.000000	0.003525
3608.000000	0.003799
3606.000000	0.004045
3604.000000	0.004246
3602.000000	0.004458
3600.000000	0.004675
3598.000000	0.004835
3596.000000	0.004945
3594.000000	0.005042
3592.000000	0.005138
3590.000000	0.005268
3588.000000	0.005458
3586.000000	0.005671
3584.000000	0.005829
3582.000000	0.005904
3580.000000	0.005884
3578.000000	0.005745
3576.000000	0.005487
3574.000000	0.005144
3572.000000	0.004736
3570.000000	0.004237
3568.000000	0.003665
3566.000000	0.003123
3564.000000	0.002656
3562.000000	0.002265
3560.000000	0.001979
3558.000000	0.001773
3556.000000	0.001607
3554.000000	0.001520
3552.000000	0.001561
3550.000000	0.001690
3548.000000	0.001857
3546.000000	0.002085
3544.000000	0.002371
3542.000000	0.002649
3540.000000	0.002900
3538.000000	0.003119
3536.000000	0.003289
3534.000000	0.003406
3532.000000	0.003475
3530.000000	0.003501
3528.000000	0.003513
3526.000000	0.003571
3524.000000	0.003730
3522.000000	0.003994
3520.000000	0.004309
3518.000000	0.004623
3516.000000	0.004953
3514.000000	0.005316
3512.000000	0.005654
3510.000000	0.005890
3508.000000	0.006000
3506.000000	0.006008
3504.000000	0.005962
3502.000000	0.005912
3500.000000	0.005856
3498.000000	0.005789
3496.000000	0.005753
3494.000000	0.005782
3492.000000	0.005845
3490.000000	0.005898
3488.000000	0.005927
3486.000000	0.005929
3484.000000	0.005908
3482.000000	0.005864
3480.000000	0.005777
3478.000000	0.005660
3476.000000	0.005550
3474.000000	0.005476
3472.000000	0.005454
3470.000000	0.005454
3468.000000	0.005436
3466.000000	0.005386
3464.000000	0.005316
3462.000000	0.005255
3460.000000	0.005217
3458.000000	0.005190
3456.000000	0.005139
3454.000000	0.005044
3452.000000	0.004943
3450.000000	0.004885
3448.000000	0.004858
3446.000000	0.004798
3444.000000	0.004683
3442.000000	0.004555
3440.000000	0.004473
3438.000000	0.004466
3436.000000	0.004519
3434.000000	0.004609
3432.000000	0.004731
3430.000000	0.004895
3428.000000	0.005103
3426.000000	0.005323
3424.000000	0.005491
3422.000000	0.005560
3420.000000	0.005538
3418.000000	0.005448
3416.000000	0.005295
3414.000000	0.005071
3412.000000	0.004796
3410.000000	0.004523
3408.000000	0.004289
3406.000000	0.004085
3404.000000	0.003897
3402.000000	0.003728
3400.000000	0.003595
3398.000000	0.003532
3396.000000	0.003531
3394.000000	0.003527
3392.000000	0.003498
3390.000000	0.003485
3388.000000	0.003538
3386.000000	0.003679
3384.000000	0.003878
3382.000000	0.004083
3380.000000	0.004275
3378.000000	0.004474
3376.000000	0.004687
3374.000000	0.004843
3372.000000	0.004865
3370.000000	0.004767
3368.000000	0.004624
3366.000000	0.004455
3364.000000	0.004252
3362.000000	0.004015
3360.000000	0.003733
3358.000000	0.003464
3356.000000	0.003330
3354.000000	0.003330
3352.000000	0.003347
3350.000000	0.003347
3348.000000	0.003383
3346.000000	0.003489
3344.000000	0.003671
3342.000000	0.003918
3340.000000	0.004167
3338.000000	0.004361
3336.000000	0.004520
3334.000000	0.004674
3332.000000	0.004818
3330.000000	0.004941
3328.000000	0.005012
3326.000000	0.005002
3324.000000	0.004938
3322.000000	0.004846
3320.000000	0.004708
3318.000000	0.004532
3316.000000	0.004343
3314.000000	0.004128
3312.000000	0.003879
3310.000000	0.003632
3308.000000	0.003403
3306.000000	0.003161
3304.000000	0.002932
3302.000000	0.002742
3300.000000	0.002596
3298.000000	0.002513
3296.000000	0.002481
3294.000000	0.002462
3292.000000	0.002451
3290.000000	0.002467
3288.000000	0.002512
3286.000000	0.002570
3284.000000	0.002633
3282.000000	0.002661
3280.000000	0.002644
3278.000000	0.002608
3276.000000	0.002533
3274.000000	0.002400
3272.000000	0.002254
3270.000000	0.002143
3268.000000	0.002057
3266.000000	0.001961
3264.000000	0.001861
3262.000000	0.001815
3260.000000	0.001866
3258.000000	0.001997
3256.000000	0.002153
3254.000000	0.002260
3252.000000	0.002295
3250.000000	0.002323
3248.000000	0.002386
3246.000000	0.002450
3244.000000	0.002495
3242.000000	0.002521
3240.000000	0.002532
3238.000000	0.002569
3236.000000	0.002680
3234.000000	0.002828
3232.000000	0.002942
3230.000000	0.003005
3228.000000	0.003031
3226.000000	0.003022
3224.000000	0.002987
3222.000000	0.002924
3220.000000	0.002827
3218.000000	0.002699
3216.000000	0.002576
3214.000000	0.002502
3212.000000	0.002470
3210.000000	0.002437
3208.000000	0.002388
3206.000000	0.002349
3204.000000	0.002334
3202.000000	0.002340
3200.000000	0.002328
3198.000000	0.002259
3196.000000	0.002151
3194.000000	0.002068
3192.000000	0.002042
3190.000000	0.002032
3188.000000	0.002000
3186.000000	0.001936
3184.000000	0.001845
3182.000000	0.001757
3180.000000	0.001683
3178.000000	0.001596
3176.000000	0.001476
3174.000000	0.001335
3172.000000	0.001181
3170.000000	0.001028
3168.000000	0.000902
3166.000000	0.000824
3164.000000	0.000795
3162.000000	0.000779
3160.000000	0.000732
3158.000000	0.000675
3156.000000	0.000662
3154.000000	0.000697
3152.000000	0.000733
3150.000000	0.000730
3148.000000	0.000699
3146.000000	0.000691
3144.000000	0.000744
3142.000000	0.000820
3140.000000	0.000820
3138.000000	0.000722
3136.000000	0.000599
3134.000000	0.000523
3132.000000	0.000490
3130.000000	0.000432
3128.000000	0.000309
3126.000000	0.000171
3124.000000	0.000126
3122.000000	0.000221
3120.000000	0.000387
3118.000000	0.000533
3116.000000	0.000634
3114.000000	0.000692
3112.000000	0.000717
3110.000000	0.000698
3108.000000	0.000583
3106.000000	0.000344
3104.000000	0.000027
3102.000000	-0.000295
3100.000000	-0.000566
3098.000000	-0.000774
3096.000000	-0.000934
3094.000000	-0.001051
3092.000000	-0.001109
3090.000000	-0.001109
3088.000000	-0.001105
3086.000000	-0.001136
3084.000000	-0.001185
3082.000000	-0.001212
3080.000000	-0.001183
3078.000000	-0.001095
3076.000000	-0.000973
3074.000000	-0.000816
3072.000000	-0.000601
3070.000000	-0.000340
3068.000000	-0.000087
3066.000000	0.000076
3064.000000	0.000086
3062.000000	-0.000035
3060.000000	-0.000220
3058.000000	-0.000458
3056.000000	-0.000761
3054.000000	-0.001107
3052.000000	-0.001474
3050.000000	-0.001836
3048.000000	-0.002131
3046.000000	-0.002336
3044.000000	-0.002492
3042.000000	-0.002603
3040.000000	-0.002641
3038.000000	-0.002585
3036.000000	-0.002447
3034.000000	-0.002245
3032.000000	-0.002018
3030.000000	-0.001800
3028.000000	-0.001582
3026.000000	-0.001356
3024.000000	-0.001143
3022.000000	-0.001004
3020.000000	-0.001000
3018.000000	-0.001121
3016.000000	-0.001290
3014.000000	-0.001452
3012.000000	-0.001605
3010.000000	-0.001809
3008.000000	-0.002129
3006.000000	-0.002537
3004.000000	-0.002920
3002.000000	-0.003205
3000.000000	-0.003428
2998.000000	-0.003661
2996.000000	-0.003893
2994.000000	-0.004050
2992.000000	-0.004097
2990.000000	-0.004058
2988.000000	-0.003992
2986.000000	-0.003952
2984.000000	-0.003917
2982.000000	-0.003839
2980.000000	-0.003720
2978.000000	-0.003598
2976.000000	-0.003499
2974.000000	-0.003395
2972.000000	-0.003225
2970.000000	-0.002982
2968.000000	-0.002730
2966.000000	-0.002524
2964.000000	-0.002379
2962.000000	-0.002326
2960.000000	-0.002374
2958.000000	-0.002470
2956.000000	-0.002606
2954.000000	-0.002801
2952.000000	-0.003004
2950.000000	-0.003169
2948.000000	-0.003285
2946.000000	-0.003349
2944.000000	-0.003364
2942.000000	-0.003347
2940.000000	-0.003316
2938.000000	-0.003304
2936.000000	-0.003339
2934.000000	-0.003421
2932.000000	-0.003547
2930.000000	-0.003692
2928.000000	-0.003824
2926.000000	-0.003948
2924.000000	-0.004069
2922.000000	-0.004146
2920.000000	-0.004159
2918.000000	-0.004147
2916.000000	-0.004134
2914.000000	-0.004100
2912.000000	-0.004037
2910.000000	-0.003965
2908.000000	-0.003907
2906.000000	-0.003868
2904.000000	-0.003825
2902.000000	-0.003715
2900.000000	-0.003506
2898.000000	-0.003244
2896.000000	-0.002966
2894.000000	-0.002659
2892.000000	-0.002329
2890.000000	-0.002016
2888.000000	-0.001786
2886.000000	-0.001693
2884.000000	-0.001750
2882.000000	-0.001934
2880.000000	-0.002219
2878.000000	-0.002596
2876.000000	-0.003038
2874.000000	-0.003489
2872.000000	-0.003891
2870.000000	-0.004200
2868.000000	-0.004413
2866.000000	-0.004560
2864.000000	-0.004664
2862.000000	-0.004736
2860.000000	-0.004792
2858.000000	-0.004853
2856.000000	-0.004931
2854.000000	-0.005024
2852.000000	-0.005133
2850.000000	-0.005221
2848.000000	-0.005233
2846.000000	-0.005130
2844.000000	-0.004911
2842.000000	-0.004618
2840.000000	-0.004302
2838.000000	-0.003990
2836.000000	-0.003664
2834.000000	-0.003329
2832.000000	-0.003032
2830.000000	-0.002817
2828.000000	-0.002693
2826.000000	-0.002632
2824.000000	-0.002575
2822.000000	-0.002484
2820.000000	-0.002370
2818.000000	-0.002258
2816.000000	-0.002142
2814.000000	-0.002011
2812.000000	-0.001889
2810.000000	-0.001792
2808.000000	-0.001730
2806.000000	-0.001704
2804.000000	-0.001713
2802.000000	-0.001757
2800.000000	-0.001822
2798.000000	-0.001884
2796.000000	-0.001942
2794.000000	-0.002006
2792.000000	-0.002078
2790.000000	-0.002164
2788.000000	-0.002269
2786.000000	-0.002377
2784.000000	-0.002476
2782.000000	-0.002562
2780.000000	-0.002618
2778.000000	-0.002624
2776.000000	-0.002577
2774.000000	-0.002481
2772.000000	-0.002337
2770.000000	-0.002157
2768.000000	-0.001963
2766.000000	-0.001785
2764.000000	-0.001664
2762.000000	-0.001630
2760.000000	-0.001666
2758.000000	-0.001731
2756.000000	-0.001821
2754.000000	-0.001948
2752.000000	-0.002121
2750.000000	-0.002320
2748.000000	-0.002502
2746.000000	-0.002626
2744.000000	-0.002688
2742.000000	-0.002734
2740.000000	-0.002799
2738.000000	-0.002872
2736.000000	-0.002918
2734.000000	-0.002927
2732.000000	-0.002925
2730.000000	-0.002945
2728.000000	-0.002971
2726.000000	-0.002969
2724.000000	-0.002910
2722.000000	-0.002791
2720.000000	-0.002661
2718.000000	-0.002578
2716.000000	-0.002541
2714.000000	-0.002511
2712.000000	-0.002486
2710.000000	-0.002487
2708.000000	-0.002533
2706.000000	-0.002616
2704.000000	-0.002697
2702.000000	-0.002756
2700.000000	-0.002782
2698.000000	-0.002755
2696.000000	-0.002669
2694.000000	-0.002535
2692.000000	-0.002367
2690.000000	-0.002180
2688.000000	-0.001966
2686.000000	-0.001702
2684.000000	-0.001423
2682.000000	-0.001185
2680.000000	-0.001004
2678.000000	-0.000876
2676.000000	-0.000814
2674.000000	-0.000815
2672.000000	-0.000868
2670.000000	-0.000970
2668.000000	-0.001089
2666.000000	-0.001143
2664.000000	-0.001088
2662.000000	-0.000951
2660.000000	-0.000758
2658.000000	-0.000519
2656.000000	-0.000254
2654.000000	0.000000
2652.000000	0.000209
2650.000000	0.000337
2648.000000	0.000353
2646.000000	0.000289
2644.000000	0.000199
2642.000000	0.000104
2640.000000	-0.000000
2638.000000	-0.000098
2636.000000	-0.000158
2634.000000	-0.000170
2632.000000	-0.000145
2630.000000	-0.000105
2628.000000	-0.000067
2626.000000	-0.000034
2624.000000	0.000010
2622.000000	0.000074
2620.000000	0.000156
2618.000000	0.000244
2616.000000	0.000332
2614.000000	0.000407
2612.000000	0.000437
2610.000000	0.000419
2608.000000	0.000372
2606.000000	0.000324
2604.000000	0.000290
2602.000000	0.000248
2600.000000	0.000174
2598.000000	0.000084
2596.000000	0.000040
2594.000000	0.000101
2592.000000	0.000267
2590.000000	0.000488
2588.000000	0.000688
2586.000000	0.000834
2584.000000	0.000976
2582.000000	0.001158
2580.000000	0.001351
2578.000000	0.001462
2576.000000	0.001424
2574.000000	0.001262
2572.000000	0.001042
2570.000000	0.000837
2568.000000	0.000676
2566.000000	0.000518
2564.000000	0.000338
2562.000000	0.000167
2560.000000	0.000065
2558.000000	0.000039
2556.000000	0.000057
2554.000000	0.000118
2552.000000	0.000234
2550.000000	0.000382
2548.000000	0.000532
2546.000000	0.000666
2544.000000	0.000773
2542.000000	0.000852
2540.000000	0.000922
2538.000000	0.000990
2536.000000	0.001003
2534.000000	0.000926
2532.000000	0.000810
2530.000000	0.000720
2528.000000	0.000674
2526.000000	0.000665
2524.000000	0.000682
2522.000000	0.000697
2520.000000	0.000691
2518.000000	0.000672
2516.000000	0.000645
2514.000000	0.000598
2512.000000	0.000516
2510.000000	0.000396
2508.000000	0.000245
2506.000000	0.000084
2504.000000	-0.000049
2502.000000	-0.000127
2500.000000	-0.000131
2498.000000	-0.000078
2496.000000	-0.000008
2494.000000	0.000078
2492.000000	0.000199
2490.000000	0.000349
2488.000000	0.000487
2486.000000	0.000566
2484.000000	0.000564
2482.000000	0.000503
2480.000000	0.000432
2478.000000	0.000368
2476.000000	0.000261
2474.000000	0.000094
2472.000000	-0.000082
2470.000000	-0.000210
2468.000000	-0.000288
2466.000000	-0.000340
2464.000000	-0.000393
2462.000000	-0.000449
2460.000000	-0.000474
2458.000000	-0.000442
2456.000000	-0.000376
2454.000000	-0.000328
2452.000000	-0.000313
2450.000000	-0.000307
2448.000000	-0.000313
2446.000000	-0.000350
2444.000000	-0.000433
2442.000000	-0.000571
2440.000000	-0.000750
2438.000000	-0.000937
2436.000000	-0.001107
2434.000000	-0.001268
2432.000000	-0.001410
2430.000000	-0.001501
2428.000000	-0.001535
2426.000000	-0.001513
2424.000000	-0.001434
2422.000000	-0.001325
2420.000000	-0.001201
2418.000000	-0.001051
2416.000000	-0.000898
2414.000000	-0.000791
2412.000000	-0.000737
2410.000000	-0.000713
2408.000000	-0.000714
2406.000000	-0.000755
2404.000000	-0.000848
2402.000000	-0.000995
2400.000000	-0.001156
2398.000000	-0.001273
2396.000000	-0.001318
2394.000000	-0.001311
2392.000000	-0.001276
2390.000000	-0.001193
2388.000000	-0.001010
2386.000000	-0.000696
2384.000000	-0.000249
2382.000000	0.000318
2380.000000	0.000980
2378.000000	0.001729
2376.000000	0.002585
2374.000000	0.003529
2372.000000	0.004476
2370.000000	0.005347
2368.000000	0.006111
2366.000000	0.006676
2364.000000	0.006995
2362.000000	0.007141
2360.000000	0.007103
2358.000000	0.006802
2356.000000	0.006313
2354.000000	0.005794
2352.000000	0.005322
2350.000000	0.004930
2348.000000	0.004655
2346.000000	0.004504
2344.000000	0.004463
2342.000000	0.004534
2340.000000	0.004704
2338.000000	0.004851
2336.000000	0.004876
2334.000000	0.004817
2332.000000	0.004693
2330.000000	0.004471
2328.000000	0.004163
2326.000000	0.003814
2324.000000	0.003461
2322.000000	0.003127
2320.000000	0.002845
2318.000000	0.002628
2316.000000	0.002424
2314.000000	0.002193
2312.000000	0.001952
2310.000000	0.001711
2308.000000	0.001455
2306.000000	0.001206
2304.000000	0.000993
2302.000000	0.000786
2300.000000	0.000560
2298.000000	0.000351
2296.000000	0.000206
2294.000000	0.000133
2292.000000	0.000102
2290.000000	0.000085
2288.000000	0.000053
2286.000000	-0.000009
2284.000000	-0.000064
2282.000000	-0.000078
2280.000000	-0.000072
2278.000000	-0.000086
2276.000000	-0.000118
2274.000000	-0.000131
2272.000000	-0.000101
2270.000000	-0.000032
2268.000000	0.000061
2266.000000	0.000174
2264.000000	0.000306
2262.000000	0.000439
2260.000000	0.000557
2258.000000	0.000650
2256.000000	0.000727
2254.000000	0.000819
2252.000000	0.000937
2250.000000	0.001054
2248.000000	0.001130
2246.000000	0.001169
2244.000000	0.001226
2242.000000	0.001316
2240.000000	0.001392
2238.000000	0.001396
2236.000000	0.001332
2234.000000	0.001251
2232.000000	0.001173
2230.000000	0.001092
2228.000000	0.000979
2226.000000	0.000810
2224.000000	0.000624
2222.000000	0.000475
2220.000000	0.000359
2218.000000	0.000257
2216.000000	0.000189
2214.000000	0.000166
2212.000000	0.000177
2210.000000	0.000227
2208.000000	0.000307
2206.000000	0.000372
2204.000000	0.000404
2202.000000	0.000429
2200.000000	0.000437
2198.000000	0.000404
2196.000000	0.000357
2194.000000	0.000314
2192.000000	0.000265
2190.000000	0.000220
2188.000000	0.000203
2186.000000	0.000207
2184.000000	0.000202
2182.000000	0.000196
2180.000000	0.000213
2178.000000	0.000253
2176.000000	0.000312
2174.000000	0.000400
2172.000000	0.000509
2170.000000	0.000630
2168.000000	0.000765
2166.000000	0.000905
2164.000000	0.001022
2162.000000	0.001109
2160.000000	0.001175
2158.000000	0.001189
2156.000000	0.001128
2154.000000	0.001013
2152.000000	0.000871
2150.000000	0.000712
2148.000000	0.000554
2146.000000	0.000403
2144.000000	0.000251
2142.000000	0.000121
2140.000000	0.000042
2138.000000	0.000009
2136.000000	-0.000009
2134.000000	-0.000038
2132.000000	-0.000047
2130.000000	-0.000044
2128.000000	-0.000017
2126.000000	0.000027
2124.000000	0.000060
2122.000000	0.000091
2120.000000	0.000156
2118.000000	0.000290
2116.000000	0.000480
2114.000000	0.000676
2112.000000	0.000840
2110.000000	0.000984
2108.000000	0.001139
2106.000000	0.001298
2104.000000	0.001431
2102.000000	0.001503
2100.000000	0.001499
2098.000000	0.001454
2096.000000	0.001424
2094.000000	0.001435
2092.000000	0.001459
2090.000000	0.001482
2088.000000	0.001529
2086.000000	0.001609
2084.000000	0.001731
2082.000000	0.001891
2080.000000	0.002048
2078.000000	0.002154
2076.000000	0.002196
2074.000000	0.002185
2072.000000	0.002129
2070.000000	0.002039
2068.000000	0.001927
2066.000000	0.001774
2064.000000	0.001579
2062.000000	0.001390
2060.000000	0.001253
2058.000000	0.001167
2056.000000	0.001119
2054.000000	0.001092
2052.000000	0.001082
2050.000000	0.001121
2048.000000	0.001236
2046.000000	0.001401
2044.000000	0.001565
2042.000000	0.001698
2040.000000	0.001793
2038.000000	0.001848
2036.000000	0.001869
2034.000000	0.001854
2032.000000	0.001811
2030.000000	0.001752
2028.000000	0.001695
2026.000000	0.001673
2024.000000	0.001718
2022.000000	0.001838
2020.000000	0.002021
2018.000000	0.002232
2016.000000	0.002415
2014.000000	0.002539
2012.000000	0.002623
2010.000000	0.002671
2008.000000	0.002655
2006.000000	0.002550
2004.000000	0.002362
2002.000000	0.002133
2000.000000	0.001900
1998.000000	0.001682
1996.000000	0.001479
1994.000000	0.001281
1992.000000	0.001101
1990.000000	0.000970
1988.000000	0.000900
1986.000000	0.000883
1984.000000	0.000885
1982.000000	0.000884
1980.000000	0.000888
1978.000000	0.000926
1976.000000	0.001000
1974.000000	0.001089
1972.000000	0.001170
1970.000000	0.001222
1968.000000	0.001252
1966.000000	0.001293
1964.000000	0.001353
1962.000000	0.001401
1960.000000	0.001424
1958.000000	0.001421
1956.000000	0.001379
1954.000000	0.001308
1952.000000	0.001249
1950.000000	0.001212
1948.000000	0.001167
1946.000000	0.001099
1944.000000	0.001003
1942.000000	0.000876
1940.000000	0.000745
1938.000000	0.000647
1936.000000	0.000577
1934.000000	0.000492
1932.000000	0.000393
1930.000000	0.000320
1928.000000	0.000294
1926.000000	0.000321
1924.000000	0.000400
1922.000000	0.000516
1920.000000	0.000632
1918.000000	0.000744
1916.000000	0.000871
1914.000000	0.001015
1912.000000	0.001156
1910.000000	0.001272
1908.000000	0.001341
1906.000000	0.001361
1904.000000	0.001337
1902.000000	0.001277
1900.000000	0.001191
1898.000000	0.001082
1896.000000	0.000956
1894.000000	0.000830
1892.000000	0.000721
1890.000000	0.000628
1888.000000	0.000550
1886.000000	0.000493
1884.000000	0.000450
1882.000000	0.000413
1880.000000	0.000375
1878.000000	0.000332
1876.000000	0.000286
1874.000000	0.000245
1872.000000	0.000212
1870.000000	0.000185
1868.000000	0.000169
1866.000000	0.000173
1864.000000	0.000212
1862.000000	0.000292
1860.000000	0.000406
1858.000000	0.000524
1856.000000	0.000642
1854.000000	0.000785
1852.000000	0.000958
1850.000000	0.001135
1848.000000	0.001297
1846.000000	0.001435
1844.000000	0.001557
1842.000000	0.001685
1840.000000	0.001814
1838.000000	0.001929
1836.000000	0.002037
1834.000000	0.002141
1832.000000	0.002239
1830.000000	0.002348
1828.000000	0.002471
1826.000000	0.002596
1824.000000	0.002744
1822.000000	0.002935
1820.000000	0.003149
1818.000000	0.003380
1816.000000	0.003627
1814.000000	0.003871
1812.000000	0.004094
1810.000000	0.004306
1808.000000	0.004517
1806.000000	0.004711
1804.000000	0.004884
1802.000000	0.005046
1800.000000	0.005198
1798.000000	0.005365
1796.000000	0.005576
1794.000000	0.005830
1792.000000	0.006114
1790.000000	0.006419
1788.000000	0.006728
1786.000000	0.007044
1784.000000	0.007381
1782.000000	0.007739
1780.000000	0.008082
1778.000000	0.008380
1776.000000	0.008638
1774.000000	0.008864
1772.000000	0.009079
1770.000000	0.009285
1768.000000	0.009431
1766.000000	0.009491
1764.000000	0.009498
1762.000000	0.009505
1760.000000	0.009535
1758.000000	0.009570
1756.000000	0.009611
1754.000000	0.009667
1752.000000	0.009749
1750.000000	0.009877
1748.000000	0.010055
1746.000000	0.010256
1744.000000	0.010441
1742.000000	0.010610
1740.000000	0.010772
1738.000000	0.010917
1736.000000	0.011041
1734.000000	0.011148
1732.000000	0.011232
1730.000000	0.011299
1728.000000	0.011350
1726.000000	0.011367
1724.000000	0.011351
1722.000000	0.011332
1720.000000	0.011327
1718.000000	0.011336
1716.000000	0.011389
1714.000000	0.011503
1712.000000	0.011665
1710.000000	0.011873
1708.000000	0.012123
1706.000000	0.012392
1704.000000	0.012640
1702.000000	0.012811
1700.000000	0.012869
1698.000000	0.012828
1696.000000	0.012728
1694.000000	0.012585
1692.000000	0.012411
1690.000000	0.012200
1688.000000	0.011982
1686.000000	0.011838
1684.000000	0.011806
1682.000000	0.011833
1680.000000	0.011853
1678.000000	0.011857
1676.000000	0.011851
1674.000000	0.011855
1672.000000	0.011867
1670.000000	0.011820
1668.000000	0.011667
1666.000000	0.011459
1664.000000	0.011249
1662.000000	0.011039
1660.000000	0.010824
1658.000000	0.010606
1656.000000	0.010384
1654.000000	0.010178
1652.000000	0.010026
1650.000000	0.009880
1648.000000	0.009697
1646.000000	0.009496
1644.000000	0.009296
1642.000000	0.009092
1640.000000	0.008887
1638.000000	0.008689
1636.000000	0.008506
1634.000000	0.008385
1632.000000	0.008336
1630.000000	0.008341
1628.000000	0.008397
1626.000000	0.008503
1624.000000	0.008647
1622.000000	0.008792
1620.000000	0.008911
1618.000000	0.008999
1616.000000	0.009070
1614.000000	0.009144
1612.000000	0.009198
1610.000000	0.009204
1608.000000	0.009168
1606.000000	0.009110
1604.000000	0.009051
1602.000000	0.008999
1600.000000	0.008944
1598.000000	0.008879
1596.000000	0.008817
1594.000000	0.008785
1592.000000	0.008776
1590.000000	0.008777
1588.000000	0.008795
1586.000000	0.008823
1584.000000	0.008846
1582.000000	0.008856
1580.000000	0.008857
1578.000000	0.008851
1576.000000	0.008854
1574.000000	0.008896
1572.000000	0.008991
1570.000000	0.009146
1568.000000	0.009381
1566.000000	0.009671
1564.000000	0.009978
1562.000000	0.010298
1560.000000	0.010634
1558.000000	0.010958
1556.000000	0.011206
1554.000000	0.011397
1552.000000	0.011553
1550.000000	0.011702
1548.000000	0.011886
1546.000000	0.012142
1544.000000	0.012474
1542.000000	0.012889
1540.000000	0.013404
1538.000000	0.014016
1536.000000	0.014693
1534.000000	0.015410
1532.000000	0.016140
1530.000000	0.016863
1528.000000	0.017573
1526.000000	0.018258
1524.000000	0.018894
1522.000000	0.019481
1520.000000	0.020045
1518.000000	0.020581
1516.000000	0.021089
1514.000000	0.021570
1512.000000	0.022015
1510.000000	0.022428
1508.000000	0.022834
1506.000000	0.023278
1504.000000	0.023709
1502.000000	0.024065
1500.000000	0.024349
1498.000000	0.024568
1496.000000	0.024724
1494.000000	0.024801
1492.000000	0.024782
1490.000000	0.024649
1488.000000	0.024410
1486.000000	0.024123
1484.000000	0.023853
1482.000000	0.023607
1480.000000	0.023378
1478.000000	0.023173
1476.000000	0.022997
1474.000000	0.022871
1472.000000	0.022824
1470.000000	0.022828
1468.000000	0.022837
1466.000000	0.022844
1464.000000	0.022870
1462.000000	0.022915
1460.000000	0.022965
1458.000000	0.023025
1456.000000	0.023118
1454.000000	0.023242
1452.000000	0.023384
1450.000000	0.023545
1448.000000	0.023710
1446.000000	0.023846
1444.000000	0.023957
1442.000000	0.024066
1440.000000	0.024155
1438.000000	0.024203
1436.000000	0.024228
1434.000000	0.024224
1432.000000	0.024180
1430.000000	0.024125
1428.000000	0.024085
1426.000000	0.024039
1424.000000	0.023957
1422.000000	0.023827
1420.000000	0.023641
1418.000000	0.023417
1416.000000	0.023190
1414.000000	0.022959
1412.000000	0.022692
1410.000000	0.022372
1408.000000	0.022018
1406.000000	0.021673
1404.000000	0.021366
1402.000000	0.021111
1400.000000	0.020894
1398.000000	0.020699
1396.000000	0.020544
1394.000000	0.020464
1392.000000	0.020462
1390.000000	0.020515
1388.000000	0.020602
1386.000000	0.020695
1384.000000	0.020767
1382.000000	0.020827
1380.000000	0.020886
1378.000000	0.020928
1376.000000	0.020940
1374.000000	0.020936
1372.000000	0.020919
1370.000000	0.020889
1368.000000	0.020867
1366.000000	0.020875
1364.000000	0.020916
1362.000000	0.020976
1360.000000	0.021047
1358.000000	0.021123
1356.000000	0.021210
1354.000000	0.021324
1352.000000	0.021474
1350.000000	0.021645
1348.000000	0.021804
1346.000000	0.021935
1344.000000	0.022056
1342.000000	0.022188
1340.000000	0.022333
1338.000000	0.022475
1336.000000	0.022583
1334.000000	0.022661
1332.000000	0.022741
1330.000000	0.022830
1328.000000	0.022915
1326.000000	0.022989
1324.000000	0.023055
1322.000000	0.023116
1320.000000	0.023174
1318.000000	0.023225
1316.000000	0.023259
1314.000000	0.023279
1312.000000	0.023306
1310.000000	0.023346
1308.000000	0.023383
1306.000000	0.023406
1304.000000	0.023427
1302.000000	0.023455
1300.000000	0.023489
1298.000000	0.023530
1296.000000	0.023564
1294.000000	0.023578
1292.000000	0.023582
1290.000000	0.023594
1288.000000	0.023618
1286.000000	0.023651
1284.000000	0.023700
1282.000000	0.023763
1280.000000	0.023843
1278.000000	0.023946
1276.000000	0.024069
1274.000000	0.024205
1272.000000	0.024343
1270.000000	0.024481
1268.000000	0.024622
1266.000000	0.024766
1264.000000	0.024905
1262.000000	0.025033
1260.000000	0.025145
1258.000000	0.025235
1256.000000	0.025306
1254.000000	0.025367
1252.000000	0.025420
1250.000000	0.025474
1248.000000	0.025544
1246.000000	0.025640
1244.000000	0.025770
1242.000000	0.025933
1240.000000	0.026117
1238.000000	0.026312
1236.000000	0.026512
1234.000000	0.026702
1232.000000	0.026849
1230.000000	0.026937
1228.000000	0.026985
1226.000000	0.027025
1224.000000	0.027074
1222.000000	0.027124
1220.000000	0.027175
1218.000000	0.027256
1216.000000	0.027406
1214.000000	0.027631
1212.000000	0.027898
1210.000000	0.028186
1208.000000	0.028498
1206.000000	0.028842
1204.000000	0.029227
1202.000000	0.029647
1200.000000	0.030078
1198.000000	0.030517
1196.000000	0.031001
1194.000000	0.031556
1192.000000	0.032176
1190.000000	0.032844
1188.000000	0.033549
1186.000000	0.034280
1184.000000	0.035033
1182.000000	0.035794
1180.000000	0.036542
1178.000000	0.037256
1176.000000	0.037917
1174.000000	0.038515
1172.000000	0.039060
1170.000000	0.039566
1168.000000	0.040034
1166.000000	0.040451
1164.000000	0.040814
1162.000000	0.041139
1160.000000	0.041452
1158.000000	0.041781
1156.000000	0.042124
1154.000000	0.042447
1152.000000	0.042727
1150.000000	0.042989
1148.000000	0.043270
1146.000000	0.043558
1144.000000	0.043823
1142.000000	0.044052
1140.000000	0.044246
1138.000000	0.044433
1136.000000	0.044665
1134.000000	0.044960
1132.000000	0.045281
1130.000000	0.045606
1128.000000	0.045960
1126.000000	0.046349
1124.000000	0.046771
1122.000000	0.047226
1120.000000	0.047690
1118.000000	0.048121
1116.000000	0.048504
1114.000000	0.048868
1112.000000	0.049224
1110.000000	0.049536
1108.000000	0.049741
1106.000000	0.049780
1104.000000	0.049602
1102.000000	0.049168
1100.000000	0.048456
1098.000000	0.047437
1096.000000	0.046070
1094.000000	0.044348
1092.000000	0.042334
1090.000000	0.040132
1088.000000	0.037826
1086.000000	0.035485
1084.000000	0.033183
1082.000000	0.030985
1080.000000	0.028935
1078.000000	0.027053
1076.000000	0.025369
1074.000000	0.023888
1072.000000	0.022547
1070.000000	0.021297
1068.000000	0.020146
1066.000000	0.019079
1064.000000	0.018077
1062.000000	0.017158
1060.000000	0.016311
1058.000000	0.015488
1056.000000	0.014691
1054.000000	0.013969
1052.000000	0.013327
1050.000000	0.012721
1048.000000	0.012121
1046.000000	0.011532
1044.000000	0.010978
1042.000000	0.010477
1040.000000	0.010026
1038.000000	0.009599
1036.000000	0.009172
1034.000000	0.008768
1032.000000	0.008433
1030.000000	0.008147
1028.000000	0.007847
1026.000000	0.007510
1024.000000	0.007140
1022.000000	0.006742
1020.000000	0.006332
1018.000000	0.005928
1016.000000	0.005522
1014.000000	0.005090
1012.000000	0.004637
1010.000000	0.004200
1008.000000	0.003795
1006.000000	0.003416
1004.000000	0.003052
1002.000000	0.002695
1000.000000	0.002342
998.000000	0.002018
996.000000	0.001754
994.000000	0.001540
992.000000	0.001326
990.000000	0.001095
988.000000	0.000876
986.000000	0.000683
984.000000	0.000501
982.000000	0.000322
980.000000	0.000138
978.000000	-0.000063
976.000000	-0.000233
974.000000	-0.000353
972.000000	-0.000420
970.000000	-0.000458
968.000000	-0.000484
966.000000	-0.000489
964.000000	-0.000467
962.000000	-0.000429
960.000000	-0.000382
958.000000	-0.000320
956.000000	-0.000247
954.000000	-0.000147
952.000000	0.000010
950.000000	0.000233
948.000000	0.000499
946.000000	0.000779
944.000000	0.001072
942.000000	0.001394
940.000000	0.001728
938.000000	0.002039
936.000000	0.002297
934.000000	0.002494
932.000000	0.002648
930.000000	0.002801
928.000000	0.002977
926.000000	0.003154
924.000000	0.003318
922.000000	0.003485
920.000000	0.003684
918.000000	0.003947
916.000000	0.004256
914.000000	0.004541
912.000000	0.004767
910.000000	0.004950
908.000000	0.005132
906.000000	0.005359
904.000000	0.005639
902.000000	0.005924
900.000000	0.006162
898.000000	0.006374
896.000000	0.006625
894.000000	0.006934
892.000000	0.007275
890.000000	0.007589
888.000000	0.007862
886.000000	0.008161
884.000000	0.008549
882.000000	0.009037
880.000000	0.009604
878.000000	0.010203
876.000000	0.010795
874.000000	0.011387
872.000000	0.011984
870.000000	0.012547
868.000000	0.013011
866.000000	0.013367
864.000000	0.013670
862.000000	0.013988
860.000000	0.014383
858.000000	0.014901
856.000000	0.015560
854.000000	0.016352
852.000000	0.017270
850.000000	0.018332
848.000000	0.019544
846.000000	0.020867
844.000000	0.022240
842.000000	0.023599
840.000000	0.024902
838.000000	0.026164
836.000000	0.027425
834.000000	0.028655
832.000000	0.029764
830.000000	0.030718
828.000000	0.031508
826.000000	0.032136
824.000000	0.032639
822.000000	0.033017
820.000000	0.033211
818.000000	0.033215
816.000000	0.033079
814.000000	0.032831
812.000000	0.032490
810.000000	0.032067
808.000000	0.031559
806.000000	0.030974
804.000000	0.030344
802.000000	0.029701
800.000000	0.029067
798.000000	0.028503
796.000000	0.028013
794.000000	0.027553
792.000000	0.027124
790.000000	0.026739
788.000000	0.026408
786.000000	0.026146
784.000000	0.025979
782.000000	0.025880
780.000000	0.025813
778.000000	0.025831
776.000000	0.025930
774.000000	0.026016
772.000000	0.026035
770.000000	0.025999
768.000000	0.025890
766.000000	0.025686
764.000000	0.025446
762.000000	0.025195
760.000000	0.024901
758.000000	0.024618
756.000000	0.024487
754.000000	0.024565
752.000000	0.024745
750.000000	0.024904
748.000000	0.024975
746.000000	0.024884
744.000000	0.024604
742.000000	0.024178
740.000000	0.023556
738.000000	0.022546
736.000000	0.021077
734.000000	0.019336
732.000000	0.017489
730.000000	0.015750
728.000000	0.014426
726.000000	0.013558
724.000000	0.012943
722.000000	0.012472
720.000000	0.012235
718.000000	0.012191
716.000000	0.012199
714.000000	0.012222
712.000000	0.011988
710.000000	0.011123
708.000000	0.009529
706.000000	0.007384
704.000000	0.005072
702.000000	0.002699
700.000000	0.000346
