PE IR       SUBTECH     SPECTRUM    ASCII       PEDS        4.00        
   -1
p2_abs_fl.asc
14/08/15
13:04:27.00
14/08/21
12:06:42.00
thompson.2166
Co-added spectrum 5 at 603, 643 (Image Marker 1)
700.000000
#HDR
-1
-1
#GR
cm-1
A
1.0
0.0
4000.000000
-2.000000
1651
8
0.106170
-0.000417
#DATA
4000.000000	0.007628
3998.000000	0.008145
3996.000000	0.008579
3994.000000	0.008897
3992.000000	0.009111
3990.000000	0.009229
3988.000000	0.009307
3986.000000	0.009359
3984.000000	0.009360
3982.000000	0.009374
3980.000000	0.009508
3978.000000	0.009803
3976.000000	0.010248
3974.000000	0.010802
3972.000000	0.011369
3970.000000	0.011833
3968.000000	0.012178
3966.000000	0.012397
3964.000000	0.012395
3962.000000	0.012116
3960.000000	0.011624
3958.000000	0.011024
3956.000000	0.010411
3954.000000	0.009890
3952.000000	0.009516
3950.000000	0.009273
3948.000000	0.009185
3946.000000	0.009273
3944.000000	0.009478
3942.000000	0.009721
3940.000000	0.009956
3938.000000	0.010129
3936.000000	0.010161
3934.000000	0.010031
3932.000000	0.009768
3930.000000	0.009382
3928.000000	0.008893
3926.000000	0.008341
3924.000000	0.007763
3922.000000	0.007187
3920.000000	0.006643
3918.000000	0.006172
3916.000000	0.005791
3914.000000	0.005513
3912.000000	0.005352
3910.000000	0.005299
3908.000000	0.005328
3906.000000	0.005433
3904.000000	0.005623
3902.000000	0.005914
3900.000000	0.006268
3898.000000	0.006568
3896.000000	0.006768
3894.000000	0.006911
3892.000000	0.007046
3890.000000	0.007148
3888.000000	0.007120
3886.000000	0.006963
3884.000000	0.006775
3882.000000	0.006676
3880.000000	0.006705
3878.000000	0.006763
3876.000000	0.006703
3874.000000	0.006521
3872.000000	0.006367
3870.000000	0.006353
3868.000000	0.006424
3866.000000	0.006430
3864.000000	0.006345
3862.000000	0.006272
3860.000000	0.006325
3858.000000	0.006576
3856.000000	0.006959
3854.000000	0.007317
3852.000000	0.007505
3850.000000	0.007541
3848.000000	0.007568
3846.000000	0.007627
3844.000000	0.007669
3842.000000	0.007649
3840.000000	0.007602
3838.000000	0.007555
3836.000000	0.007516
3834.000000	0.007525
3832.000000	0.007556
3830.000000	0.007586
3828.000000	0.007662
3826.000000	0.007790
3824.000000	0.007890
3822.000000	0.007926
3820.000000	0.007953
3818.000000	0.008014
3816.000000	0.008096
3814.000000	0.008167
3812.000000	0.008175
3810.000000	0.008115
3808.000000	0.008045
3806.000000	0.007986
3804.000000	0.007920
3802.000000	0.007877
3800.000000	0.007876
3798.000000	0.007851
3796.000000	0.007756
3794.000000	0.007589
3792.000000	0.007381
3790.000000	0.007167
3788.000000	0.006995
3786.000000	0.006878
3784.000000	0.006801
3782.000000	0.006747
3780.000000	0.006717
3778.000000	0.006755
3776.000000	0.006853
3774.000000	0.006935
3772.000000	0.006927
3770.000000	0.006800
3768.000000	0.006509
3766.000000	0.005975
3764.000000	0.005224
3762.000000	0.004354
3760.000000	0.003409
3758.000000	0.002446
3756.000000	0.001542
3754.000000	0.000718
3752.000000	0.000006
3750.000000	-0.000417
3748.000000	-0.000389
3746.000000	0.000011
3744.000000	0.000592
3742.000000	0.001178
3740.000000	0.001681
3738.000000	0.002090
3736.000000	0.002375
3734.000000	0.002533
3732.000000	0.002590
3730.000000	0.002467
3728.000000	0.002199
3726.000000	0.001961
3724.000000	0.001864
3722.000000	0.001901
3720.000000	0.002092
3718.000000	0.002388
3716.000000	0.002658
3714.000000	0.002869
3712.000000	0.003056
3710.000000	0.003197
3708.000000	0.003247
3706.000000	0.003191
3704.000000	0.003048
3702.000000	0.002895
3700.000000	0.002794
3698.000000	0.002723
3696.000000	0.002672
3694.000000	0.002654
3692.000000	0.002692
3690.000000	0.002840
3688.000000	0.003152
3686.000000	0.003549
3684.000000	0.003938
3682.000000	0.004320
3680.000000	0.004716
3678.000000	0.005103
3676.000000	0.005495
3674.000000	0.005967
3672.000000	0.006435
3670.000000	0.006816
3668.000000	0.007147
3666.000000	0.007471
3664.000000	0.007803
3662.000000	0.008202
3660.000000	0.008673
3658.000000	0.009107
3656.000000	0.009437
3654.000000	0.009705
3652.000000	0.009954
3650.000000	0.010196
3648.000000	0.010466
3646.000000	0.010688
3644.000000	0.010832
3642.000000	0.011006
3640.000000	0.011258
3638.000000	0.011582
3636.000000	0.011987
3634.000000	0.012486
3632.000000	0.013057
3630.000000	0.013715
3628.000000	0.014430
3626.000000	0.015056
3624.000000	0.015618
3622.000000	0.016189
3620.000000	0.016780
3618.000000	0.017357
3616.000000	0.017873
3614.000000	0.018334
3612.000000	0.018771
3610.000000	0.019217
3608.000000	0.019674
3606.000000	0.020099
3604.000000	0.020456
3602.000000	0.020753
3600.000000	0.021027
3598.000000	0.021309
3596.000000	0.021633
3594.000000	0.022023
3592.000000	0.022466
3590.000000	0.022913
3588.000000	0.023346
3586.000000	0.023776
3584.000000	0.024221
3582.000000	0.024673
3580.000000	0.025040
3578.000000	0.025274
3576.000000	0.025456
3574.000000	0.025688
3572.000000	0.026009
3570.000000	0.026399
3568.000000	0.026791
3566.000000	0.027125
3564.000000	0.027446
3562.000000	0.027807
3560.000000	0.028149
3558.000000	0.028404
3556.000000	0.028576
3554.000000	0.028706
3552.000000	0.028832
3550.000000	0.028992
3548.000000	0.029196
3546.000000	0.029429
3544.000000	0.029712
3542.000000	0.030059
3540.000000	0.030429
3538.000000	0.030773
3536.000000	0.031066
3534.000000	0.031329
3532.000000	0.031593
3530.000000	0.031845
3528.000000	0.032040
3526.000000	0.032189
3524.000000	0.032330
3522.000000	0.032446
3520.000000	0.032544
3518.000000	0.032670
3516.000000	0.032806
3514.000000	0.032936
3512.000000	0.033120
3510.000000	0.033419
3508.000000	0.033809
3506.000000	0.034216
3504.000000	0.034610
3502.000000	0.034948
3500.000000	0.035177
3498.000000	0.035315
3496.000000	0.035417
3494.000000	0.035505
3492.000000	0.035573
3490.000000	0.035656
3488.000000	0.035798
3486.000000	0.036021
3484.000000	0.036349
3482.000000	0.036785
3480.000000	0.037270
3478.000000	0.037691
3476.000000	0.038018
3474.000000	0.038290
3472.000000	0.038491
3470.000000	0.038594
3468.000000	0.038622
3466.000000	0.038575
3464.000000	0.038433
3462.000000	0.038222
3460.000000	0.037966
3458.000000	0.037645
3456.000000	0.037287
3454.000000	0.036962
3452.000000	0.036691
3450.000000	0.036515
3448.000000	0.036464
3446.000000	0.036510
3444.000000	0.036615
3442.000000	0.036771
3440.000000	0.036977
3438.000000	0.037208
3436.000000	0.037430
3434.000000	0.037576
3432.000000	0.037581
3430.000000	0.037432
3428.000000	0.037140
3426.000000	0.036734
3424.000000	0.036269
3422.000000	0.035770
3420.000000	0.035234
3418.000000	0.034707
3416.000000	0.034273
3414.000000	0.033974
3412.000000	0.033801
3410.000000	0.033718
3408.000000	0.033674
3406.000000	0.033614
3404.000000	0.033495
3402.000000	0.033254
3400.000000	0.032822
3398.000000	0.032240
3396.000000	0.031615
3394.000000	0.031013
3392.000000	0.030468
3390.000000	0.029987
3388.000000	0.029570
3386.000000	0.029284
3384.000000	0.029186
3382.000000	0.029218
3380.000000	0.029255
3378.000000	0.029219
3376.000000	0.029109
3374.000000	0.028927
3372.000000	0.028685
3370.000000	0.028409
3368.000000	0.028078
3366.000000	0.027676
3364.000000	0.027233
3362.000000	0.026814
3360.000000	0.026463
3358.000000	0.026174
3356.000000	0.025939
3354.000000	0.025752
3352.000000	0.025619
3350.000000	0.025546
3348.000000	0.025498
3346.000000	0.025417
3344.000000	0.025270
3342.000000	0.025084
3340.000000	0.024889
3338.000000	0.024662
3336.000000	0.024342
3334.000000	0.023902
3332.000000	0.023407
3330.000000	0.022969
3328.000000	0.022647
3326.000000	0.022370
3324.000000	0.022007
3322.000000	0.021563
3320.000000	0.021180
3318.000000	0.020947
3316.000000	0.020831
3314.000000	0.020736
3312.000000	0.020591
3310.000000	0.020426
3308.000000	0.020328
3306.000000	0.020300
3304.000000	0.020239
3302.000000	0.020098
3300.000000	0.019922
3298.000000	0.019749
3296.000000	0.019604
3294.000000	0.019500
3292.000000	0.019404
3290.000000	0.019307
3288.000000	0.019266
3286.000000	0.019289
3284.000000	0.019309
3282.000000	0.019264
3280.000000	0.019142
3278.000000	0.018938
3276.000000	0.018677
3274.000000	0.018399
3272.000000	0.018072
3270.000000	0.017651
3268.000000	0.017179
3266.000000	0.016723
3264.000000	0.016318
3262.000000	0.015983
3260.000000	0.015701
3258.000000	0.015438
3256.000000	0.015209
3254.000000	0.015040
3252.000000	0.014910
3250.000000	0.014794
3248.000000	0.014691
3246.000000	0.014594
3244.000000	0.014463
3242.000000	0.014270
3240.000000	0.014001
3238.000000	0.013636
3236.000000	0.013213
3234.000000	0.012796
3232.000000	0.012394
3230.000000	0.012006
3228.000000	0.011652
3226.000000	0.011375
3224.000000	0.011234
3222.000000	0.011252
3220.000000	0.011409
3218.000000	0.011657
3216.000000	0.011938
3214.000000	0.012197
3212.000000	0.012385
3210.000000	0.012480
3208.000000	0.012472
3206.000000	0.012354
3204.000000	0.012135
3202.000000	0.011820
3200.000000	0.011410
3198.000000	0.010914
3196.000000	0.010366
3194.000000	0.009843
3192.000000	0.009406
3190.000000	0.009055
3188.000000	0.008752
3186.000000	0.008464
3184.000000	0.008219
3182.000000	0.008071
3180.000000	0.008047
3178.000000	0.008114
3176.000000	0.008176
3174.000000	0.008176
3172.000000	0.008127
3170.000000	0.008078
3168.000000	0.008054
3166.000000	0.008012
3164.000000	0.007904
3162.000000	0.007759
3160.000000	0.007638
3158.000000	0.007543
3156.000000	0.007412
3154.000000	0.007207
3152.000000	0.006958
3150.000000	0.006698
3148.000000	0.006437
3146.000000	0.006177
3144.000000	0.005902
3142.000000	0.005638
3140.000000	0.005472
3138.000000	0.005467
3136.000000	0.005581
3134.000000	0.005734
3132.000000	0.005912
3130.000000	0.006113
3128.000000	0.006269
3126.000000	0.006324
3124.000000	0.006261
3122.000000	0.006065
3120.000000	0.005752
3118.000000	0.005378
3116.000000	0.004965
3114.000000	0.004525
3112.000000	0.004120
3110.000000	0.003814
3108.000000	0.003638
3106.000000	0.003563
3104.000000	0.003542
3102.000000	0.003538
3100.000000	0.003536
3098.000000	0.003562
3096.000000	0.003620
3094.000000	0.003656
3092.000000	0.003625
3090.000000	0.003510
3088.000000	0.003325
3086.000000	0.003109
3084.000000	0.002888
3082.000000	0.002637
3080.000000	0.002319
3078.000000	0.001960
3076.000000	0.001609
3074.000000	0.001289
3072.000000	0.001035
3070.000000	0.000862
3068.000000	0.000758
3066.000000	0.000726
3064.000000	0.000771
3062.000000	0.000885
3060.000000	0.001068
3058.000000	0.001311
3056.000000	0.001593
3054.000000	0.001899
3052.000000	0.002221
3050.000000	0.002547
3048.000000	0.002867
3046.000000	0.003159
3044.000000	0.003373
3042.000000	0.003475
3040.000000	0.003481
3038.000000	0.003409
3036.000000	0.003228
3034.000000	0.002922
3032.000000	0.002521
3030.000000	0.002058
3028.000000	0.001576
3026.000000	0.001135
3024.000000	0.000729
3022.000000	0.000346
3020.000000	0.000034
3018.000000	-0.000155
3016.000000	-0.000219
3014.000000	-0.000171
3012.000000	-0.000019
3010.000000	0.000202
3008.000000	0.000448
3006.000000	0.000712
3004.000000	0.000945
3002.000000	0.001112
3000.000000	0.001232
2998.000000	0.001306
2996.000000	0.001303
2994.000000	0.001245
2992.000000	0.001178
2990.000000	0.001127
2988.000000	0.001118
2986.000000	0.001164
2984.000000	0.001261
2982.000000	0.001405
2980.000000	0.001604
2978.000000	0.001851
2976.000000	0.002112
2974.000000	0.002366
2972.000000	0.002635
2970.000000	0.002925
2968.000000	0.003197
2966.000000	0.003421
2964.000000	0.003604
2962.000000	0.003735
2960.000000	0.003802
2958.000000	0.003837
2956.000000	0.003840
2954.000000	0.003763
2952.000000	0.003610
2950.000000	0.003413
2948.000000	0.003162
2946.000000	0.002855
2944.000000	0.002545
2942.000000	0.002266
2940.000000	0.002029
2938.000000	0.001860
2936.000000	0.001783
2934.000000	0.001797
2932.000000	0.001892
2930.000000	0.002059
2928.000000	0.002291
2926.000000	0.002571
2924.000000	0.002887
2922.000000	0.003210
2920.000000	0.003493
2918.000000	0.003722
2916.000000	0.003926
2914.000000	0.004151
2912.000000	0.004418
2910.000000	0.004656
2908.000000	0.004781
2906.000000	0.004814
2904.000000	0.004837
2902.000000	0.004883
2900.000000	0.004931
2898.000000	0.004956
2896.000000	0.004919
2894.000000	0.004841
2892.000000	0.004825
2890.000000	0.004882
2888.000000	0.004922
2886.000000	0.004903
2884.000000	0.004858
2882.000000	0.004813
2880.000000	0.004756
2878.000000	0.004668
2876.000000	0.004549
2874.000000	0.004427
2872.000000	0.004361
2870.000000	0.004389
2868.000000	0.004482
2866.000000	0.004586
2864.000000	0.004716
2862.000000	0.004934
2860.000000	0.005237
2858.000000	0.005549
2856.000000	0.005819
2854.000000	0.006032
2852.000000	0.006205
2850.000000	0.006383
2848.000000	0.006577
2846.000000	0.006742
2844.000000	0.006852
2842.000000	0.006939
2840.000000	0.007034
2838.000000	0.007131
2836.000000	0.007225
2834.000000	0.007322
2832.000000	0.007388
2830.000000	0.007400
2828.000000	0.007398
2826.000000	0.007420
2824.000000	0.007469
2822.000000	0.007545
2820.000000	0.007633
2818.000000	0.007704
2816.000000	0.007788
2814.000000	0.007936
2812.000000	0.008128
2810.000000	0.008319
2808.000000	0.008504
2806.000000	0.008692
2804.000000	0.008891
2802.000000	0.009108
2800.000000	0.009307
2798.000000	0.009460
2796.000000	0.009588
2794.000000	0.009702
2792.000000	0.009789
2790.000000	0.009841
2788.000000	0.009867
2786.000000	0.009884
2784.000000	0.009922
2782.000000	0.010001
2780.000000	0.010098
2778.000000	0.010182
2776.000000	0.010264
2774.000000	0.010346
2772.000000	0.010421
2770.000000	0.010489
2768.000000	0.010533
2766.000000	0.010543
2764.000000	0.010537
2762.000000	0.010555
2760.000000	0.010600
2758.000000	0.010636
2756.000000	0.010671
2754.000000	0.010729
2752.000000	0.010801
2750.000000	0.010884
2748.000000	0.010987
2746.000000	0.011104
2744.000000	0.011233
2742.000000	0.011389
2740.000000	0.011573
2738.000000	0.011755
2736.000000	0.011918
2734.000000	0.012097
2732.000000	0.012289
2730.000000	0.012439
2728.000000	0.012521
2726.000000	0.012535
2724.000000	0.012501
2722.000000	0.012440
2720.000000	0.012360
2718.000000	0.012258
2716.000000	0.012136
2714.000000	0.012022
2712.000000	0.011955
2710.000000	0.011942
2708.000000	0.011961
2706.000000	0.011989
2704.000000	0.012032
2702.000000	0.012098
2700.000000	0.012176
2698.000000	0.012257
2696.000000	0.012335
2694.000000	0.012390
2692.000000	0.012411
2690.000000	0.012424
2688.000000	0.012431
2686.000000	0.012404
2684.000000	0.012350
2682.000000	0.012289
2680.000000	0.012179
2678.000000	0.012005
2676.000000	0.011817
2674.000000	0.011638
2672.000000	0.011476
2670.000000	0.011356
2668.000000	0.011286
2666.000000	0.011245
2664.000000	0.011263
2662.000000	0.011385
2660.000000	0.011560
2658.000000	0.011719
2656.000000	0.011880
2654.000000	0.012069
2652.000000	0.012260
2650.000000	0.012429
2648.000000	0.012545
2646.000000	0.012576
2644.000000	0.012552
2642.000000	0.012543
2640.000000	0.012568
2638.000000	0.012604
2636.000000	0.012635
2634.000000	0.012684
2632.000000	0.012783
2630.000000	0.012933
2628.000000	0.013130
2626.000000	0.013364
2624.000000	0.013616
2622.000000	0.013872
2620.000000	0.014091
2618.000000	0.014231
2616.000000	0.014304
2614.000000	0.014378
2612.000000	0.014473
2610.000000	0.014554
2608.000000	0.014606
2606.000000	0.014631
2604.000000	0.014658
2602.000000	0.014734
2600.000000	0.014869
2598.000000	0.015021
2596.000000	0.015158
2594.000000	0.015293
2592.000000	0.015440
2590.000000	0.015596
2588.000000	0.015739
2586.000000	0.015842
2584.000000	0.015905
2582.000000	0.015948
2580.000000	0.015989
2578.000000	0.016009
2576.000000	0.015963
2574.000000	0.015836
2572.000000	0.015683
2570.000000	0.015571
2568.000000	0.015512
2566.000000	0.015492
2564.000000	0.015494
2562.000000	0.015524
2560.000000	0.015617
2558.000000	0.015796
2556.000000	0.016036
2554.000000	0.016268
2552.000000	0.016438
2550.000000	0.016563
2548.000000	0.016680
2546.000000	0.016774
2544.000000	0.016815
2542.000000	0.016818
2540.000000	0.016826
2538.000000	0.016877
2536.000000	0.016988
2534.000000	0.017150
2532.000000	0.017338
2530.000000	0.017547
2528.000000	0.017800
2526.000000	0.018083
2524.000000	0.018333
2522.000000	0.018512
2520.000000	0.018649
2518.000000	0.018761
2516.000000	0.018813
2514.000000	0.018798
2512.000000	0.018739
2510.000000	0.018640
2508.000000	0.018531
2506.000000	0.018460
2504.000000	0.018414
2502.000000	0.018340
2500.000000	0.018250
2498.000000	0.018195
2496.000000	0.018170
2494.000000	0.018138
2492.000000	0.018103
2490.000000	0.018049
2488.000000	0.017956
2486.000000	0.017835
2484.000000	0.017704
2482.000000	0.017581
2480.000000	0.017465
2478.000000	0.017354
2476.000000	0.017264
2474.000000	0.017198
2472.000000	0.017159
2470.000000	0.017159
2468.000000	0.017203
2466.000000	0.017291
2464.000000	0.017412
2462.000000	0.017533
2460.000000	0.017642
2458.000000	0.017766
2456.000000	0.017906
2454.000000	0.018022
2452.000000	0.018092
2450.000000	0.018104
2448.000000	0.018036
2446.000000	0.017931
2444.000000	0.017857
2442.000000	0.017809
2440.000000	0.017748
2438.000000	0.017671
2436.000000	0.017615
2434.000000	0.017617
2432.000000	0.017692
2430.000000	0.017818
2428.000000	0.017940
2426.000000	0.018038
2424.000000	0.018133
2422.000000	0.018226
2420.000000	0.018293
2418.000000	0.018325
2416.000000	0.018323
2414.000000	0.018309
2412.000000	0.018330
2410.000000	0.018368
2408.000000	0.018362
2406.000000	0.018302
2404.000000	0.018233
2402.000000	0.018202
2400.000000	0.018217
2398.000000	0.018217
2396.000000	0.018130
2394.000000	0.017933
2392.000000	0.017693
2390.000000	0.017489
2388.000000	0.017309
2386.000000	0.017049
2384.000000	0.016592
2382.000000	0.015887
2380.000000	0.014998
2378.000000	0.014023
2376.000000	0.013040
2374.000000	0.012144
2372.000000	0.011451
2370.000000	0.011040
2368.000000	0.010958
2366.000000	0.011293
2364.000000	0.012097
2362.000000	0.013282
2360.000000	0.014738
2358.000000	0.016237
2356.000000	0.017391
2354.000000	0.018044
2352.000000	0.018260
2350.000000	0.018120
2348.000000	0.017670
2346.000000	0.016992
2344.000000	0.016166
2342.000000	0.015172
2340.000000	0.014181
2338.000000	0.013504
2336.000000	0.013197
2334.000000	0.013134
2332.000000	0.013243
2330.000000	0.013537
2328.000000	0.013981
2326.000000	0.014572
2324.000000	0.015285
2322.000000	0.015957
2320.000000	0.016508
2318.000000	0.016971
2316.000000	0.017355
2314.000000	0.017598
2312.000000	0.017642
2310.000000	0.017485
2308.000000	0.017191
2306.000000	0.016854
2304.000000	0.016505
2302.000000	0.016134
2300.000000	0.015745
2298.000000	0.015349
2296.000000	0.014984
2294.000000	0.014718
2292.000000	0.014588
2290.000000	0.014558
2288.000000	0.014564
2286.000000	0.014563
2284.000000	0.014529
2282.000000	0.014464
2280.000000	0.014391
2278.000000	0.014289
2276.000000	0.014109
2274.000000	0.013827
2272.000000	0.013476
2270.000000	0.013130
2268.000000	0.012853
2266.000000	0.012664
2264.000000	0.012547
2262.000000	0.012473
2260.000000	0.012433
2258.000000	0.012431
2256.000000	0.012450
2254.000000	0.012456
2252.000000	0.012424
2250.000000	0.012363
2248.000000	0.012295
2246.000000	0.012234
2244.000000	0.012196
2242.000000	0.012200
2240.000000	0.012232
2238.000000	0.012250
2236.000000	0.012244
2234.000000	0.012223
2232.000000	0.012171
2230.000000	0.012071
2228.000000	0.011902
2226.000000	0.011639
2224.000000	0.011301
2222.000000	0.010949
2220.000000	0.010629
2218.000000	0.010330
2216.000000	0.010022
2214.000000	0.009715
2212.000000	0.009431
2210.000000	0.009190
2208.000000	0.009005
2206.000000	0.008888
2204.000000	0.008829
2202.000000	0.008799
2200.000000	0.008763
2198.000000	0.008704
2196.000000	0.008625
2194.000000	0.008557
2192.000000	0.008515
2190.000000	0.008447
2188.000000	0.008297
2186.000000	0.008077
2184.000000	0.007822
2182.000000	0.007559
2180.000000	0.007305
2178.000000	0.007050
2176.000000	0.006768
2174.000000	0.006469
2172.000000	0.006188
2170.000000	0.005941
2168.000000	0.005737
2166.000000	0.005576
2164.000000	0.005453
2162.000000	0.005380
2160.000000	0.005361
2158.000000	0.005361
2156.000000	0.005358
2154.000000	0.005351
2152.000000	0.005337
2150.000000	0.005304
2148.000000	0.005256
2146.000000	0.005189
2144.000000	0.005078
2142.000000	0.004947
2140.000000	0.004830
2138.000000	0.004723
2136.000000	0.004630
2134.000000	0.004563
2132.000000	0.004531
2130.000000	0.004522
2128.000000	0.004530
2126.000000	0.004524
2124.000000	0.004473
2122.000000	0.004417
2120.000000	0.004396
2118.000000	0.004377
2116.000000	0.004311
2114.000000	0.004183
2112.000000	0.004014
2110.000000	0.003840
2108.000000	0.003680
2106.000000	0.003508
2104.000000	0.003289
2102.000000	0.003020
2100.000000	0.002708
2098.000000	0.002374
2096.000000	0.002056
2094.000000	0.001787
2092.000000	0.001580
2090.000000	0.001432
2088.000000	0.001330
2086.000000	0.001283
2084.000000	0.001316
2082.000000	0.001423
2080.000000	0.001559
2078.000000	0.001667
2076.000000	0.001704
2074.000000	0.001668
2072.000000	0.001594
2070.000000	0.001485
2068.000000	0.001335
2066.000000	0.001163
2064.000000	0.001006
2062.000000	0.000874
2060.000000	0.000752
2058.000000	0.000636
2056.000000	0.000532
2054.000000	0.000444
2052.000000	0.000377
2050.000000	0.000300
2048.000000	0.000189
2046.000000	0.000064
2044.000000	-0.000043
2042.000000	-0.000076
2040.000000	-0.000071
2038.000000	-0.000016
2036.000000	0.000061
2034.000000	0.000155
2032.000000	0.000267
2030.000000	0.000392
2028.000000	0.000535
2026.000000	0.000673
2024.000000	0.000761
2022.000000	0.000801
2020.000000	0.000840
2018.000000	0.000925
2016.000000	0.001041
2014.000000	0.001146
2012.000000	0.001231
2010.000000	0.001326
2008.000000	0.001450
2006.000000	0.001585
2004.000000	0.001700
2002.000000	0.001760
2000.000000	0.001767
1998.000000	0.001779
1996.000000	0.001819
1994.000000	0.001847
1992.000000	0.001869
1990.000000	0.001928
1988.000000	0.002015
1986.000000	0.002110
1984.000000	0.002212
1982.000000	0.002319
1980.000000	0.002417
1978.000000	0.002506
1976.000000	0.002572
1974.000000	0.002593
1972.000000	0.002589
1970.000000	0.002592
1968.000000	0.002603
1966.000000	0.002622
1964.000000	0.002661
1962.000000	0.002722
1960.000000	0.002809
1958.000000	0.002938
1956.000000	0.003099
1954.000000	0.003272
1952.000000	0.003440
1950.000000	0.003594
1948.000000	0.003732
1946.000000	0.003849
1944.000000	0.003942
1942.000000	0.003997
1940.000000	0.004013
1938.000000	0.004016
1936.000000	0.004010
1934.000000	0.003991
1932.000000	0.003971
1930.000000	0.003967
1928.000000	0.003977
1926.000000	0.003992
1924.000000	0.004004
1922.000000	0.003993
1920.000000	0.003963
1918.000000	0.003951
1916.000000	0.003979
1914.000000	0.004009
1912.000000	0.004015
1910.000000	0.004024
1908.000000	0.004073
1906.000000	0.004185
1904.000000	0.004352
1902.000000	0.004527
1900.000000	0.004658
1898.000000	0.004744
1896.000000	0.004822
1894.000000	0.004917
1892.000000	0.005013
1890.000000	0.005079
1888.000000	0.005124
1886.000000	0.005183
1884.000000	0.005276
1882.000000	0.005389
1880.000000	0.005498
1878.000000	0.005612
1876.000000	0.005758
1874.000000	0.005942
1872.000000	0.006154
1870.000000	0.006372
1868.000000	0.006553
1866.000000	0.006710
1864.000000	0.006900
1862.000000	0.007110
1860.000000	0.007276
1858.000000	0.007353
1856.000000	0.007341
1854.000000	0.007267
1852.000000	0.007177
1850.000000	0.007084
1848.000000	0.006969
1846.000000	0.006838
1844.000000	0.006714
1842.000000	0.006651
1840.000000	0.006671
1838.000000	0.006750
1836.000000	0.006850
1834.000000	0.006974
1832.000000	0.007143
1830.000000	0.007361
1828.000000	0.007619
1826.000000	0.007881
1824.000000	0.008118
1822.000000	0.008327
1820.000000	0.008515
1818.000000	0.008680
1816.000000	0.008815
1814.000000	0.008910
1812.000000	0.008955
1810.000000	0.008960
1808.000000	0.008937
1806.000000	0.008889
1804.000000	0.008828
1802.000000	0.008782
1800.000000	0.008769
1798.000000	0.008774
1796.000000	0.008794
1794.000000	0.008838
1792.000000	0.008904
1790.000000	0.009001
1788.000000	0.009137
1786.000000	0.009275
1784.000000	0.009376
1782.000000	0.009438
1780.000000	0.009473
1778.000000	0.009466
1776.000000	0.009394
1774.000000	0.009250
1772.000000	0.009026
1770.000000	0.008770
1768.000000	0.008536
1766.000000	0.008308
1764.000000	0.008077
1762.000000	0.007853
1760.000000	0.007664
1758.000000	0.007549
1756.000000	0.007514
1754.000000	0.007507
1752.000000	0.007476
1750.000000	0.007419
1748.000000	0.007342
1746.000000	0.007258
1744.000000	0.007189
1742.000000	0.007119
1740.000000	0.007015
1738.000000	0.006884
1736.000000	0.006772
1734.000000	0.006724
1732.000000	0.006758
1730.000000	0.006845
1728.000000	0.006968
1726.000000	0.007111
1724.000000	0.007269
1722.000000	0.007454
1720.000000	0.007652
1718.000000	0.007820
1716.000000	0.007946
1714.000000	0.008055
1712.000000	0.008125
1710.000000	0.008164
1708.000000	0.008211
1706.000000	0.008286
1704.000000	0.008392
1702.000000	0.008514
1700.000000	0.008653
1698.000000	0.008840
1696.000000	0.009043
1694.000000	0.009241
1692.000000	0.009421
1690.000000	0.009554
1688.000000	0.009636
1686.000000	0.009702
1684.000000	0.009792
1682.000000	0.009921
1680.000000	0.010087
1678.000000	0.010295
1676.000000	0.010547
1674.000000	0.010863
1672.000000	0.011240
1670.000000	0.011631
1668.000000	0.011993
1666.000000	0.012289
1664.000000	0.012515
1662.000000	0.012699
1660.000000	0.012886
1658.000000	0.013089
1656.000000	0.013313
1654.000000	0.013599
1652.000000	0.014020
1650.000000	0.014581
1648.000000	0.015253
1646.000000	0.016029
1644.000000	0.016877
1642.000000	0.017750
1640.000000	0.018632
1638.000000	0.019525
1636.000000	0.020424
1634.000000	0.021297
1632.000000	0.022139
1630.000000	0.022971
1628.000000	0.023804
1626.000000	0.024640
1624.000000	0.025470
1622.000000	0.026254
1620.000000	0.026934
1618.000000	0.027470
1616.000000	0.027854
1614.000000	0.028068
1612.000000	0.028090
1610.000000	0.027908
1608.000000	0.027525
1606.000000	0.026982
1604.000000	0.026335
1602.000000	0.025633
1600.000000	0.024943
1598.000000	0.024311
1596.000000	0.023785
1594.000000	0.023418
1592.000000	0.023242
1590.000000	0.023241
1588.000000	0.023401
1586.000000	0.023740
1584.000000	0.024285
1582.000000	0.025042
1580.000000	0.025975
1578.000000	0.027022
1576.000000	0.028140
1574.000000	0.029376
1572.000000	0.030777
1570.000000	0.032353
1568.000000	0.034087
1566.000000	0.035945
1564.000000	0.037925
1562.000000	0.040030
1560.000000	0.042277
1558.000000	0.044696
1556.000000	0.047236
1554.000000	0.049829
1552.000000	0.052433
1550.000000	0.055002
1548.000000	0.057519
1546.000000	0.059995
1544.000000	0.062442
1542.000000	0.064826
1540.000000	0.067142
1538.000000	0.069383
1536.000000	0.071504
1534.000000	0.073536
1532.000000	0.075532
1530.000000	0.077482
1528.000000	0.079347
1526.000000	0.081129
1524.000000	0.082838
1522.000000	0.084449
1520.000000	0.085969
1518.000000	0.087446
1516.000000	0.088853
1514.000000	0.090114
1512.000000	0.091219
1510.000000	0.092171
1508.000000	0.092954
1506.000000	0.093575
1504.000000	0.094023
1502.000000	0.094279
1500.000000	0.094344
1498.000000	0.094240
1496.000000	0.093984
1494.000000	0.093595
1492.000000	0.093085
1490.000000	0.092466
1488.000000	0.091779
1486.000000	0.091040
1484.000000	0.090266
1482.000000	0.089494
1480.000000	0.088752
1478.000000	0.088054
1476.000000	0.087449
1474.000000	0.086988
1472.000000	0.086685
1470.000000	0.086519
1468.000000	0.086473
1466.000000	0.086528
1464.000000	0.086675
1462.000000	0.086913
1460.000000	0.087220
1458.000000	0.087572
1456.000000	0.087947
1454.000000	0.088309
1452.000000	0.088649
1450.000000	0.088981
1448.000000	0.089328
1446.000000	0.089693
1444.000000	0.090031
1442.000000	0.090298
1440.000000	0.090490
1438.000000	0.090622
1436.000000	0.090706
1434.000000	0.090740
1432.000000	0.090677
1430.000000	0.090475
1428.000000	0.090119
1426.000000	0.089589
1424.000000	0.088834
1422.000000	0.087794
1420.000000	0.086450
1418.000000	0.084810
1416.000000	0.082900
1414.000000	0.080733
1412.000000	0.078321
1410.000000	0.075694
1408.000000	0.072923
1406.000000	0.070106
1404.000000	0.067314
1402.000000	0.064571
1400.000000	0.061891
1398.000000	0.059298
1396.000000	0.056817
1394.000000	0.054471
1392.000000	0.052287
1390.000000	0.050237
1388.000000	0.048279
1386.000000	0.046403
1384.000000	0.044591
1382.000000	0.042825
1380.000000	0.041126
1378.000000	0.039523
1376.000000	0.038020
1374.000000	0.036631
1372.000000	0.035373
1370.000000	0.034237
1368.000000	0.033222
1366.000000	0.032344
1364.000000	0.031583
1362.000000	0.030894
1360.000000	0.030257
1358.000000	0.029661
1356.000000	0.029082
1354.000000	0.028511
1352.000000	0.027955
1350.000000	0.027417
1348.000000	0.026895
1346.000000	0.026396
1344.000000	0.025928
1342.000000	0.025480
1340.000000	0.025049
1338.000000	0.024657
1336.000000	0.024310
1334.000000	0.024005
1332.000000	0.023741
1330.000000	0.023510
1328.000000	0.023288
1326.000000	0.023064
1324.000000	0.022844
1322.000000	0.022625
1320.000000	0.022399
1318.000000	0.022160
1316.000000	0.021899
1314.000000	0.021632
1312.000000	0.021394
1310.000000	0.021204
1308.000000	0.021057
1306.000000	0.020947
1304.000000	0.020870
1302.000000	0.020816
1300.000000	0.020796
1298.000000	0.020821
1296.000000	0.020865
1294.000000	0.020894
1292.000000	0.020912
1290.000000	0.020924
1288.000000	0.020940
1286.000000	0.020961
1284.000000	0.020973
1282.000000	0.020943
1280.000000	0.020874
1278.000000	0.020803
1276.000000	0.020756
1274.000000	0.020745
1272.000000	0.020768
1270.000000	0.020808
1268.000000	0.020870
1266.000000	0.020984
1264.000000	0.021166
1262.000000	0.021396
1260.000000	0.021643
1258.000000	0.021871
1256.000000	0.022070
1254.000000	0.022260
1252.000000	0.022456
1250.000000	0.022638
1248.000000	0.022793
1246.000000	0.022934
1244.000000	0.023088
1242.000000	0.023277
1240.000000	0.023524
1238.000000	0.023843
1236.000000	0.024245
1234.000000	0.024765
1232.000000	0.025440
1230.000000	0.026287
1228.000000	0.027320
1226.000000	0.028573
1224.000000	0.030068
1222.000000	0.031791
1220.000000	0.033702
1218.000000	0.035751
1216.000000	0.037884
1214.000000	0.040066
1212.000000	0.042265
1210.000000	0.044434
1208.000000	0.046521
1206.000000	0.048514
1204.000000	0.050418
1202.000000	0.052248
1200.000000	0.054008
1198.000000	0.055685
1196.000000	0.057283
1194.000000	0.058810
1192.000000	0.060237
1190.000000	0.061536
1188.000000	0.062706
1186.000000	0.063763
1184.000000	0.064726
1182.000000	0.065625
1180.000000	0.066468
1178.000000	0.067247
1176.000000	0.068007
1174.000000	0.068818
1172.000000	0.069696
1170.000000	0.070610
1168.000000	0.071552
1166.000000	0.072519
1164.000000	0.073496
1162.000000	0.074503
1160.000000	0.075557
1158.000000	0.076605
1156.000000	0.077593
1154.000000	0.078543
1152.000000	0.079476
1150.000000	0.080366
1148.000000	0.081210
1146.000000	0.082033
1144.000000	0.082824
1142.000000	0.083594
1140.000000	0.084374
1138.000000	0.085174
1136.000000	0.086025
1134.000000	0.086985
1132.000000	0.088072
1130.000000	0.089254
1128.000000	0.090486
1126.000000	0.091745
1124.000000	0.093045
1122.000000	0.094406
1120.000000	0.095799
1118.000000	0.097169
1116.000000	0.098503
1114.000000	0.099798
1112.000000	0.101047
1110.000000	0.102263
1108.000000	0.103412
1106.000000	0.104413
1104.000000	0.105233
1102.000000	0.105844
1100.000000	0.106170
1098.000000	0.106169
1096.000000	0.105843
1094.000000	0.105172
1092.000000	0.104143
1090.000000	0.102776
1088.000000	0.101086
1086.000000	0.099103
1084.000000	0.096908
1082.000000	0.094601
1080.000000	0.092241
1078.000000	0.089875
1076.000000	0.087550
1074.000000	0.085293
1072.000000	0.083142
1070.000000	0.081150
1068.000000	0.079330
1066.000000	0.077655
1064.000000	0.076105
1062.000000	0.074682
1060.000000	0.073386
1058.000000	0.072228
1056.000000	0.071224
1054.000000	0.070337
1052.000000	0.069516
1050.000000	0.068756
1048.000000	0.068073
1046.000000	0.067434
1044.000000	0.066798
1042.000000	0.066155
1040.000000	0.065503
1038.000000	0.064849
1036.000000	0.064220
1034.000000	0.063611
1032.000000	0.063019
1030.000000	0.062488
1028.000000	0.062072
1026.000000	0.061781
1024.000000	0.061587
1022.000000	0.061464
1020.000000	0.061409
1018.000000	0.061436
1016.000000	0.061535
1014.000000	0.061642
1012.000000	0.061694
1010.000000	0.061675
1008.000000	0.061606
1006.000000	0.061503
1004.000000	0.061367
1002.000000	0.061185
1000.000000	0.060944
998.000000	0.060662
996.000000	0.060370
994.000000	0.060087
992.000000	0.059813
990.000000	0.059557
988.000000	0.059332
986.000000	0.059137
984.000000	0.058954
982.000000	0.058783
980.000000	0.058641
978.000000	0.058539
976.000000	0.058472
974.000000	0.058419
972.000000	0.058348
970.000000	0.058249
968.000000	0.058147
966.000000	0.058077
964.000000	0.058044
962.000000	0.058030
960.000000	0.057992
958.000000	0.057911
956.000000	0.057818
954.000000	0.057716
952.000000	0.057577
950.000000	0.057382
948.000000	0.057116
946.000000	0.056763
944.000000	0.056354
942.000000	0.055943
940.000000	0.055552
938.000000	0.055187
936.000000	0.054874
934.000000	0.054627
932.000000	0.054438
930.000000	0.054300
928.000000	0.054194
926.000000	0.054096
924.000000	0.053985
922.000000	0.053844
920.000000	0.053663
918.000000	0.053452
916.000000	0.053210
914.000000	0.052918
912.000000	0.052596
910.000000	0.052293
908.000000	0.052022
906.000000	0.051776
904.000000	0.051556
902.000000	0.051382
900.000000	0.051284
898.000000	0.051303
896.000000	0.051482
894.000000	0.051806
892.000000	0.052241
890.000000	0.052819
888.000000	0.053611
886.000000	0.054608
884.000000	0.055742
882.000000	0.056973
880.000000	0.058243
878.000000	0.059460
876.000000	0.060554
874.000000	0.061389
872.000000	0.061743
870.000000	0.061489
868.000000	0.060605
866.000000	0.059075
864.000000	0.056910
862.000000	0.054222
860.000000	0.051194
858.000000	0.048009
856.000000	0.044866
854.000000	0.041965
852.000000	0.039437
850.000000	0.037325
848.000000	0.035614
846.000000	0.034299
844.000000	0.033330
842.000000	0.032626
840.000000	0.032144
838.000000	0.031828
836.000000	0.031590
834.000000	0.031409
832.000000	0.031333
830.000000	0.031390
828.000000	0.031548
826.000000	0.031756
824.000000	0.032000
822.000000	0.032311
820.000000	0.032722
818.000000	0.033217
816.000000	0.033729
814.000000	0.034231
812.000000	0.034756
810.000000	0.035359
808.000000	0.036098
806.000000	0.036986
804.000000	0.037970
802.000000	0.038965
800.000000	0.039951
798.000000	0.040933
796.000000	0.041859
794.000000	0.042679
792.000000	0.043361
790.000000	0.043912
788.000000	0.044371
786.000000	0.044757
784.000000	0.045059
782.000000	0.045277
780.000000	0.045468
778.000000	0.045719
776.000000	0.046068
774.000000	0.046478
772.000000	0.046867
770.000000	0.047237
768.000000	0.047703
766.000000	0.048326
764.000000	0.049065
762.000000	0.049887
760.000000	0.050770
758.000000	0.051678
756.000000	0.052661
754.000000	0.053780
752.000000	0.055008
750.000000	0.056338
748.000000	0.057776
746.000000	0.059226
744.000000	0.060519
742.000000	0.061536
740.000000	0.062241
738.000000	0.062585
736.000000	0.062422
734.000000	0.061574
732.000000	0.060116
730.000000	0.058435
728.000000	0.056896
726.000000	0.055609
724.000000	0.054509
722.000000	0.053653
720.000000	0.053055
718.000000	0.052530
716.000000	0.052079
714.000000	0.051587
712.000000	0.050602
710.000000	0.048850
708.000000	0.046626
706.000000	0.043963
704.000000	0.040709
702.000000	0.037376
700.000000	0.034170
