PE IR       SUBTECH     SPECTRUM    ASCII       PEDS        4.00        
   -1
mix5050_4_unfl.asc
14/09/23
15:05:57.00
14/10/15
13:00:54.00
nystrom.12
Co-added spectrum 1 at -854, -2251 (Image Marker 1)
700.000000
#HDR
-1
-1
#GR
cm-1
A
1.0
0.0
4000.000000
-2.000000
1651
8
0.052959
-0.008063
#DATA
4000.000000	0.037793
3998.000000	0.037312
3996.000000	0.036842
3994.000000	0.036381
3992.000000	0.035988
3990.000000	0.035757
3988.000000	0.035696
3986.000000	0.035740
3984.000000	0.035842
3982.000000	0.035967
3980.000000	0.036083
3978.000000	0.036203
3976.000000	0.036322
3974.000000	0.036372
3972.000000	0.036298
3970.000000	0.036112
3968.000000	0.035857
3966.000000	0.035559
3964.000000	0.035253
3962.000000	0.034982
3960.000000	0.034761
3958.000000	0.034630
3956.000000	0.034626
3954.000000	0.034690
3952.000000	0.034729
3950.000000	0.034725
3948.000000	0.034686
3946.000000	0.034583
3944.000000	0.034384
3942.000000	0.034067
3940.000000	0.033641
3938.000000	0.033169
3936.000000	0.032761
3934.000000	0.032456
3932.000000	0.032207
3930.000000	0.032035
3928.000000	0.031997
3926.000000	0.032066
3924.000000	0.032166
3922.000000	0.032234
3920.000000	0.032250
3918.000000	0.032233
3916.000000	0.032220
3914.000000	0.032181
3912.000000	0.032067
3910.000000	0.031889
3908.000000	0.031703
3906.000000	0.031591
3904.000000	0.031613
3902.000000	0.031727
3900.000000	0.031833
3898.000000	0.031937
3896.000000	0.032088
3894.000000	0.032283
3892.000000	0.032481
3890.000000	0.032623
3888.000000	0.032680
3886.000000	0.032669
3884.000000	0.032598
3882.000000	0.032466
3880.000000	0.032299
3878.000000	0.032123
3876.000000	0.031944
3874.000000	0.031787
3872.000000	0.031656
3870.000000	0.031508
3868.000000	0.031332
3866.000000	0.031175
3864.000000	0.031058
3862.000000	0.030915
3860.000000	0.030732
3858.000000	0.030545
3856.000000	0.030342
3854.000000	0.030138
3852.000000	0.029989
3850.000000	0.029868
3848.000000	0.029715
3846.000000	0.029538
3844.000000	0.029371
3842.000000	0.029220
3840.000000	0.029094
3838.000000	0.028992
3836.000000	0.028888
3834.000000	0.028794
3832.000000	0.028740
3830.000000	0.028728
3828.000000	0.028721
3826.000000	0.028664
3824.000000	0.028534
3822.000000	0.028358
3820.000000	0.028173
3818.000000	0.027984
3816.000000	0.027797
3814.000000	0.027622
3812.000000	0.027478
3810.000000	0.027406
3808.000000	0.027438
3806.000000	0.027564
3804.000000	0.027733
3802.000000	0.027887
3800.000000	0.028024
3798.000000	0.028172
3796.000000	0.028318
3794.000000	0.028421
3792.000000	0.028451
3790.000000	0.028413
3788.000000	0.028309
3786.000000	0.028154
3784.000000	0.027968
3782.000000	0.027735
3780.000000	0.027465
3778.000000	0.027205
3776.000000	0.026967
3774.000000	0.026755
3772.000000	0.026618
3770.000000	0.026586
3768.000000	0.026613
3766.000000	0.026667
3764.000000	0.026773
3762.000000	0.026915
3760.000000	0.027039
3758.000000	0.027098
3756.000000	0.027051
3754.000000	0.026903
3752.000000	0.026729
3750.000000	0.026581
3748.000000	0.026346
3746.000000	0.025996
3744.000000	0.025649
3742.000000	0.025370
3740.000000	0.025167
3738.000000	0.025049
3736.000000	0.024992
3734.000000	0.024968
3732.000000	0.025034
3730.000000	0.025222
3728.000000	0.025461
3726.000000	0.025697
3724.000000	0.025953
3722.000000	0.026236
3720.000000	0.026506
3718.000000	0.026743
3716.000000	0.026949
3714.000000	0.027128
3712.000000	0.027297
3710.000000	0.027479
3708.000000	0.027635
3706.000000	0.027745
3704.000000	0.027819
3702.000000	0.027863
3700.000000	0.027878
3698.000000	0.027874
3696.000000	0.027879
3694.000000	0.027913
3692.000000	0.027951
3690.000000	0.027973
3688.000000	0.027993
3686.000000	0.027980
3684.000000	0.027898
3682.000000	0.027780
3680.000000	0.027646
3678.000000	0.027470
3676.000000	0.027279
3674.000000	0.027079
3672.000000	0.026822
3670.000000	0.026585
3668.000000	0.026416
3666.000000	0.026269
3664.000000	0.026141
3662.000000	0.026038
3660.000000	0.025960
3658.000000	0.025914
3656.000000	0.025901
3654.000000	0.025912
3652.000000	0.025974
3650.000000	0.026137
3648.000000	0.026371
3646.000000	0.026631
3644.000000	0.026920
3642.000000	0.027207
3640.000000	0.027496
3638.000000	0.027829
3636.000000	0.028171
3634.000000	0.028442
3632.000000	0.028632
3630.000000	0.028788
3628.000000	0.028902
3626.000000	0.028954
3624.000000	0.029010
3622.000000	0.029091
3620.000000	0.029149
3618.000000	0.029202
3616.000000	0.029298
3614.000000	0.029416
3612.000000	0.029570
3610.000000	0.029797
3608.000000	0.030040
3606.000000	0.030210
3604.000000	0.030314
3602.000000	0.030421
3600.000000	0.030534
3598.000000	0.030618
3596.000000	0.030667
3594.000000	0.030695
3592.000000	0.030740
3590.000000	0.030850
3588.000000	0.031032
3586.000000	0.031269
3584.000000	0.031547
3582.000000	0.031835
3580.000000	0.032130
3578.000000	0.032457
3576.000000	0.032759
3574.000000	0.032953
3572.000000	0.033048
3570.000000	0.033044
3568.000000	0.032903
3566.000000	0.032677
3564.000000	0.032416
3562.000000	0.032060
3560.000000	0.031634
3558.000000	0.031259
3556.000000	0.030976
3554.000000	0.030782
3552.000000	0.030695
3550.000000	0.030679
3548.000000	0.030706
3546.000000	0.030830
3544.000000	0.031080
3542.000000	0.031362
3540.000000	0.031593
3538.000000	0.031774
3536.000000	0.031922
3534.000000	0.032064
3532.000000	0.032218
3530.000000	0.032374
3528.000000	0.032503
3526.000000	0.032586
3524.000000	0.032642
3522.000000	0.032695
3520.000000	0.032722
3518.000000	0.032697
3516.000000	0.032608
3514.000000	0.032456
3512.000000	0.032286
3510.000000	0.032144
3508.000000	0.032042
3506.000000	0.031987
3504.000000	0.031998
3502.000000	0.032088
3500.000000	0.032270
3498.000000	0.032528
3496.000000	0.032814
3494.000000	0.033117
3492.000000	0.033437
3490.000000	0.033731
3488.000000	0.033954
3486.000000	0.034120
3484.000000	0.034261
3482.000000	0.034400
3480.000000	0.034536
3478.000000	0.034634
3476.000000	0.034669
3474.000000	0.034643
3472.000000	0.034534
3470.000000	0.034311
3468.000000	0.033981
3466.000000	0.033565
3464.000000	0.033104
3462.000000	0.032650
3460.000000	0.032217
3458.000000	0.031806
3456.000000	0.031537
3454.000000	0.031547
3452.000000	0.031781
3450.000000	0.032109
3448.000000	0.032461
3446.000000	0.032797
3444.000000	0.033127
3442.000000	0.033480
3440.000000	0.033812
3438.000000	0.034014
3436.000000	0.034038
3434.000000	0.033939
3432.000000	0.033802
3430.000000	0.033668
3428.000000	0.033512
3426.000000	0.033308
3424.000000	0.033092
3422.000000	0.032926
3420.000000	0.032839
3418.000000	0.032816
3416.000000	0.032806
3414.000000	0.032771
3412.000000	0.032733
3410.000000	0.032727
3408.000000	0.032740
3406.000000	0.032718
3404.000000	0.032635
3402.000000	0.032509
3400.000000	0.032387
3398.000000	0.032309
3396.000000	0.032271
3394.000000	0.032242
3392.000000	0.032198
3390.000000	0.032131
3388.000000	0.032043
3386.000000	0.031943
3384.000000	0.031831
3382.000000	0.031693
3380.000000	0.031553
3378.000000	0.031465
3376.000000	0.031437
3374.000000	0.031466
3372.000000	0.031547
3370.000000	0.031671
3368.000000	0.031863
3366.000000	0.032142
3364.000000	0.032450
3362.000000	0.032692
3360.000000	0.032859
3358.000000	0.032996
3356.000000	0.033106
3354.000000	0.033192
3352.000000	0.033271
3350.000000	0.033318
3348.000000	0.033323
3346.000000	0.033343
3344.000000	0.033400
3342.000000	0.033448
3340.000000	0.033465
3338.000000	0.033444
3336.000000	0.033350
3334.000000	0.033180
3332.000000	0.032969
3330.000000	0.032736
3328.000000	0.032487
3326.000000	0.032237
3324.000000	0.031990
3322.000000	0.031764
3320.000000	0.031608
3318.000000	0.031534
3316.000000	0.031489
3314.000000	0.031439
3312.000000	0.031386
3310.000000	0.031345
3308.000000	0.031360
3306.000000	0.031454
3304.000000	0.031598
3302.000000	0.031742
3300.000000	0.031874
3298.000000	0.032009
3296.000000	0.032161
3294.000000	0.032305
3292.000000	0.032359
3290.000000	0.032292
3288.000000	0.032122
3286.000000	0.031863
3284.000000	0.031563
3282.000000	0.031292
3280.000000	0.031065
3278.000000	0.030878
3276.000000	0.030772
3274.000000	0.030764
3272.000000	0.030838
3270.000000	0.031016
3268.000000	0.031287
3266.000000	0.031574
3264.000000	0.031804
3262.000000	0.031961
3260.000000	0.032070
3258.000000	0.032150
3256.000000	0.032191
3254.000000	0.032146
3252.000000	0.031993
3250.000000	0.031770
3248.000000	0.031551
3246.000000	0.031376
3244.000000	0.031222
3242.000000	0.031044
3240.000000	0.030847
3238.000000	0.030681
3236.000000	0.030591
3234.000000	0.030594
3232.000000	0.030677
3230.000000	0.030804
3228.000000	0.030941
3226.000000	0.031085
3224.000000	0.031232
3222.000000	0.031343
3220.000000	0.031382
3218.000000	0.031349
3216.000000	0.031224
3214.000000	0.030964
3212.000000	0.030595
3210.000000	0.030220
3208.000000	0.029920
3206.000000	0.029701
3204.000000	0.029529
3202.000000	0.029379
3200.000000	0.029273
3198.000000	0.029284
3196.000000	0.029424
3194.000000	0.029588
3192.000000	0.029657
3190.000000	0.029603
3188.000000	0.029490
3186.000000	0.029393
3184.000000	0.029297
3182.000000	0.029136
3180.000000	0.028896
3178.000000	0.028629
3176.000000	0.028380
3174.000000	0.028169
3172.000000	0.027987
3170.000000	0.027789
3168.000000	0.027579
3166.000000	0.027410
3164.000000	0.027303
3162.000000	0.027231
3160.000000	0.027163
3158.000000	0.027100
3156.000000	0.027060
3154.000000	0.027036
3152.000000	0.026990
3150.000000	0.026929
3148.000000	0.026876
3146.000000	0.026817
3144.000000	0.026761
3142.000000	0.026721
3140.000000	0.026660
3138.000000	0.026572
3136.000000	0.026512
3134.000000	0.026501
3132.000000	0.026494
3130.000000	0.026459
3128.000000	0.026430
3126.000000	0.026445
3124.000000	0.026528
3122.000000	0.026683
3120.000000	0.026865
3118.000000	0.027012
3116.000000	0.027120
3114.000000	0.027205
3112.000000	0.027239
3110.000000	0.027202
3108.000000	0.027086
3106.000000	0.026891
3104.000000	0.026652
3102.000000	0.026402
3100.000000	0.026155
3098.000000	0.025930
3096.000000	0.025751
3094.000000	0.025637
3092.000000	0.025588
3090.000000	0.025581
3088.000000	0.025581
3086.000000	0.025585
3084.000000	0.025610
3082.000000	0.025628
3080.000000	0.025600
3078.000000	0.025518
3076.000000	0.025379
3074.000000	0.025169
3072.000000	0.024918
3070.000000	0.024659
3068.000000	0.024362
3066.000000	0.024015
3064.000000	0.023680
3062.000000	0.023404
3060.000000	0.023190
3058.000000	0.023047
3056.000000	0.022973
3054.000000	0.022947
3052.000000	0.022975
3050.000000	0.023066
3048.000000	0.023174
3046.000000	0.023232
3044.000000	0.023228
3042.000000	0.023179
3040.000000	0.023078
3038.000000	0.022922
3036.000000	0.022728
3034.000000	0.022502
3032.000000	0.022276
3030.000000	0.022122
3028.000000	0.022072
3026.000000	0.022106
3024.000000	0.022204
3022.000000	0.022346
3020.000000	0.022486
3018.000000	0.022590
3016.000000	0.022654
3014.000000	0.022666
3012.000000	0.022600
3010.000000	0.022450
3008.000000	0.022248
3006.000000	0.022035
3004.000000	0.021833
3002.000000	0.021673
3000.000000	0.021578
2998.000000	0.021536
2996.000000	0.021536
2994.000000	0.021586
2992.000000	0.021652
2990.000000	0.021697
2988.000000	0.021730
2986.000000	0.021752
2984.000000	0.021733
2982.000000	0.021664
2980.000000	0.021598
2978.000000	0.021606
2976.000000	0.021717
2974.000000	0.021888
2972.000000	0.022078
2970.000000	0.022289
2968.000000	0.022543
2966.000000	0.022856
2964.000000	0.023185
2962.000000	0.023349
2960.000000	0.023221
2958.000000	0.022899
2956.000000	0.022504
2954.000000	0.022057
2952.000000	0.021570
2950.000000	0.021049
2948.000000	0.020527
2946.000000	0.020088
2944.000000	0.019816
2942.000000	0.019692
2940.000000	0.019645
2938.000000	0.019638
2936.000000	0.019656
2934.000000	0.019684
2932.000000	0.019713
2930.000000	0.019723
2928.000000	0.019709
2926.000000	0.019704
2924.000000	0.019742
2922.000000	0.019803
2920.000000	0.019871
2918.000000	0.019947
2916.000000	0.020000
2914.000000	0.020007
2912.000000	0.019968
2910.000000	0.019850
2908.000000	0.019621
2906.000000	0.019325
2904.000000	0.019030
2902.000000	0.018758
2900.000000	0.018512
2898.000000	0.018290
2896.000000	0.018071
2894.000000	0.017894
2892.000000	0.017844
2890.000000	0.017936
2888.000000	0.018101
2886.000000	0.018288
2884.000000	0.018492
2882.000000	0.018700
2880.000000	0.018896
2878.000000	0.019067
2876.000000	0.019168
2874.000000	0.019154
2872.000000	0.019033
2870.000000	0.018854
2868.000000	0.018644
2866.000000	0.018423
2864.000000	0.018234
2862.000000	0.018105
2860.000000	0.018035
2858.000000	0.018032
2856.000000	0.018096
2854.000000	0.018180
2852.000000	0.018233
2850.000000	0.018248
2848.000000	0.018213
2846.000000	0.018128
2844.000000	0.018011
2842.000000	0.017862
2840.000000	0.017673
2838.000000	0.017462
2836.000000	0.017265
2834.000000	0.017106
2832.000000	0.017009
2830.000000	0.016971
2828.000000	0.016951
2826.000000	0.016936
2824.000000	0.016930
2822.000000	0.016920
2820.000000	0.016914
2818.000000	0.016919
2816.000000	0.016895
2814.000000	0.016820
2812.000000	0.016727
2810.000000	0.016651
2808.000000	0.016608
2806.000000	0.016588
2804.000000	0.016542
2802.000000	0.016442
2800.000000	0.016314
2798.000000	0.016182
2796.000000	0.016035
2794.000000	0.015858
2792.000000	0.015654
2790.000000	0.015452
2788.000000	0.015308
2786.000000	0.015242
2784.000000	0.015220
2782.000000	0.015204
2780.000000	0.015184
2778.000000	0.015158
2776.000000	0.015112
2774.000000	0.015038
2772.000000	0.014910
2770.000000	0.014701
2768.000000	0.014430
2766.000000	0.014148
2764.000000	0.013893
2762.000000	0.013673
2760.000000	0.013491
2758.000000	0.013346
2756.000000	0.013246
2754.000000	0.013214
2752.000000	0.013263
2750.000000	0.013376
2748.000000	0.013532
2746.000000	0.013697
2744.000000	0.013832
2742.000000	0.013925
2740.000000	0.013974
2738.000000	0.013968
2736.000000	0.013902
2734.000000	0.013784
2732.000000	0.013631
2730.000000	0.013474
2728.000000	0.013355
2726.000000	0.013303
2724.000000	0.013328
2722.000000	0.013416
2720.000000	0.013530
2718.000000	0.013649
2716.000000	0.013754
2714.000000	0.013809
2712.000000	0.013796
2710.000000	0.013722
2708.000000	0.013565
2706.000000	0.013326
2704.000000	0.013036
2702.000000	0.012731
2700.000000	0.012458
2698.000000	0.012256
2696.000000	0.012112
2694.000000	0.011998
2692.000000	0.011906
2690.000000	0.011857
2688.000000	0.011875
2686.000000	0.011946
2684.000000	0.012002
2682.000000	0.011986
2680.000000	0.011909
2678.000000	0.011825
2676.000000	0.011763
2674.000000	0.011700
2672.000000	0.011603
2670.000000	0.011460
2668.000000	0.011296
2666.000000	0.011169
2664.000000	0.011098
2662.000000	0.011060
2660.000000	0.011035
2658.000000	0.011019
2656.000000	0.011015
2654.000000	0.011022
2652.000000	0.011035
2650.000000	0.011034
2648.000000	0.010989
2646.000000	0.010880
2644.000000	0.010695
2642.000000	0.010443
2640.000000	0.010157
2638.000000	0.009870
2636.000000	0.009602
2634.000000	0.009367
2632.000000	0.009177
2630.000000	0.009045
2628.000000	0.008997
2626.000000	0.009042
2624.000000	0.009139
2622.000000	0.009241
2620.000000	0.009324
2618.000000	0.009379
2616.000000	0.009403
2614.000000	0.009400
2612.000000	0.009361
2610.000000	0.009281
2608.000000	0.009167
2606.000000	0.009047
2604.000000	0.008939
2602.000000	0.008847
2600.000000	0.008786
2598.000000	0.008767
2596.000000	0.008786
2594.000000	0.008821
2592.000000	0.008861
2590.000000	0.008901
2588.000000	0.008933
2586.000000	0.008962
2584.000000	0.008985
2582.000000	0.008980
2580.000000	0.008921
2578.000000	0.008808
2576.000000	0.008673
2574.000000	0.008542
2572.000000	0.008425
2570.000000	0.008328
2568.000000	0.008240
2566.000000	0.008157
2564.000000	0.008082
2562.000000	0.008021
2560.000000	0.007964
2558.000000	0.007899
2556.000000	0.007838
2554.000000	0.007781
2552.000000	0.007716
2550.000000	0.007645
2548.000000	0.007587
2546.000000	0.007558
2544.000000	0.007555
2542.000000	0.007565
2540.000000	0.007574
2538.000000	0.007560
2536.000000	0.007509
2534.000000	0.007429
2532.000000	0.007327
2530.000000	0.007196
2528.000000	0.007037
2526.000000	0.006860
2524.000000	0.006683
2522.000000	0.006524
2520.000000	0.006388
2518.000000	0.006280
2516.000000	0.006209
2514.000000	0.006165
2512.000000	0.006149
2510.000000	0.006166
2508.000000	0.006213
2506.000000	0.006287
2504.000000	0.006396
2502.000000	0.006530
2500.000000	0.006666
2498.000000	0.006797
2496.000000	0.006925
2494.000000	0.007037
2492.000000	0.007107
2490.000000	0.007119
2488.000000	0.007068
2486.000000	0.006953
2484.000000	0.006803
2482.000000	0.006647
2480.000000	0.006481
2478.000000	0.006307
2476.000000	0.006136
2474.000000	0.005981
2472.000000	0.005873
2470.000000	0.005830
2468.000000	0.005839
2466.000000	0.005877
2464.000000	0.005931
2462.000000	0.006006
2460.000000	0.006108
2458.000000	0.006214
2456.000000	0.006280
2454.000000	0.006289
2452.000000	0.006247
2450.000000	0.006161
2448.000000	0.006034
2446.000000	0.005875
2444.000000	0.005689
2442.000000	0.005494
2440.000000	0.005339
2438.000000	0.005248
2436.000000	0.005203
2434.000000	0.005198
2432.000000	0.005239
2430.000000	0.005316
2428.000000	0.005426
2426.000000	0.005581
2424.000000	0.005778
2422.000000	0.006004
2420.000000	0.006257
2418.000000	0.006527
2416.000000	0.006789
2414.000000	0.007038
2412.000000	0.007276
2410.000000	0.007467
2408.000000	0.007569
2406.000000	0.007594
2404.000000	0.007569
2402.000000	0.007503
2400.000000	0.007407
2398.000000	0.007300
2396.000000	0.007219
2394.000000	0.007201
2392.000000	0.007272
2390.000000	0.007450
2388.000000	0.007708
2386.000000	0.007997
2384.000000	0.008301
2382.000000	0.008601
2380.000000	0.008875
2378.000000	0.009170
2376.000000	0.009534
2374.000000	0.009911
2372.000000	0.010254
2370.000000	0.010640
2368.000000	0.011156
2366.000000	0.011828
2364.000000	0.012653
2362.000000	0.013542
2360.000000	0.014328
2358.000000	0.014943
2356.000000	0.015399
2354.000000	0.015744
2352.000000	0.015942
2350.000000	0.015912
2348.000000	0.015715
2346.000000	0.015439
2344.000000	0.015133
2342.000000	0.014841
2340.000000	0.014627
2338.000000	0.014498
2336.000000	0.014417
2334.000000	0.014347
2332.000000	0.014256
2330.000000	0.014118
2328.000000	0.013896
2326.000000	0.013630
2324.000000	0.013383
2322.000000	0.013146
2320.000000	0.012917
2318.000000	0.012718
2316.000000	0.012551
2314.000000	0.012410
2312.000000	0.012297
2310.000000	0.012161
2308.000000	0.011933
2306.000000	0.011619
2304.000000	0.011249
2302.000000	0.010847
2300.000000	0.010427
2298.000000	0.010019
2296.000000	0.009675
2294.000000	0.009428
2292.000000	0.009286
2290.000000	0.009236
2288.000000	0.009275
2286.000000	0.009398
2284.000000	0.009574
2282.000000	0.009762
2280.000000	0.009934
2278.000000	0.010083
2276.000000	0.010224
2274.000000	0.010366
2272.000000	0.010490
2270.000000	0.010553
2268.000000	0.010540
2266.000000	0.010481
2264.000000	0.010399
2262.000000	0.010289
2260.000000	0.010143
2258.000000	0.009972
2256.000000	0.009794
2254.000000	0.009622
2252.000000	0.009482
2250.000000	0.009388
2248.000000	0.009325
2246.000000	0.009288
2244.000000	0.009284
2242.000000	0.009298
2240.000000	0.009307
2238.000000	0.009300
2236.000000	0.009269
2234.000000	0.009197
2232.000000	0.009088
2230.000000	0.008967
2228.000000	0.008846
2226.000000	0.008734
2224.000000	0.008661
2222.000000	0.008635
2220.000000	0.008630
2218.000000	0.008633
2216.000000	0.008664
2214.000000	0.008725
2212.000000	0.008791
2210.000000	0.008853
2208.000000	0.008894
2206.000000	0.008913
2204.000000	0.008954
2202.000000	0.009048
2200.000000	0.009174
2198.000000	0.009296
2196.000000	0.009405
2194.000000	0.009517
2192.000000	0.009641
2190.000000	0.009760
2188.000000	0.009848
2186.000000	0.009877
2184.000000	0.009841
2182.000000	0.009783
2180.000000	0.009749
2178.000000	0.009745
2176.000000	0.009744
2174.000000	0.009734
2172.000000	0.009730
2170.000000	0.009761
2168.000000	0.009855
2166.000000	0.010003
2164.000000	0.010139
2162.000000	0.010222
2160.000000	0.010269
2158.000000	0.010312
2156.000000	0.010375
2154.000000	0.010435
2152.000000	0.010431
2150.000000	0.010367
2148.000000	0.010320
2146.000000	0.010321
2144.000000	0.010354
2142.000000	0.010400
2140.000000	0.010453
2138.000000	0.010520
2136.000000	0.010624
2134.000000	0.010772
2132.000000	0.010939
2130.000000	0.011107
2128.000000	0.011280
2126.000000	0.011452
2124.000000	0.011612
2122.000000	0.011748
2120.000000	0.011859
2118.000000	0.011957
2116.000000	0.012037
2114.000000	0.012078
2112.000000	0.012081
2110.000000	0.012055
2108.000000	0.012016
2106.000000	0.011991
2104.000000	0.011988
2102.000000	0.011987
2100.000000	0.011978
2098.000000	0.011977
2096.000000	0.011992
2094.000000	0.012035
2092.000000	0.012095
2090.000000	0.012138
2088.000000	0.012151
2086.000000	0.012150
2084.000000	0.012153
2082.000000	0.012168
2080.000000	0.012190
2078.000000	0.012206
2076.000000	0.012207
2074.000000	0.012206
2072.000000	0.012226
2070.000000	0.012277
2068.000000	0.012353
2066.000000	0.012438
2064.000000	0.012514
2062.000000	0.012578
2060.000000	0.012655
2058.000000	0.012770
2056.000000	0.012894
2054.000000	0.012990
2052.000000	0.013061
2050.000000	0.013128
2048.000000	0.013211
2046.000000	0.013323
2044.000000	0.013433
2042.000000	0.013494
2040.000000	0.013504
2038.000000	0.013502
2036.000000	0.013502
2034.000000	0.013488
2032.000000	0.013452
2030.000000	0.013390
2028.000000	0.013302
2026.000000	0.013207
2024.000000	0.013142
2022.000000	0.013134
2020.000000	0.013174
2018.000000	0.013241
2016.000000	0.013328
2014.000000	0.013426
2012.000000	0.013534
2010.000000	0.013665
2008.000000	0.013811
2006.000000	0.013937
2004.000000	0.014023
2002.000000	0.014067
2000.000000	0.014094
1998.000000	0.014134
1996.000000	0.014179
1994.000000	0.014212
1992.000000	0.014236
1990.000000	0.014248
1988.000000	0.014248
1986.000000	0.014264
1984.000000	0.014313
1982.000000	0.014361
1980.000000	0.014392
1978.000000	0.014431
1976.000000	0.014495
1974.000000	0.014594
1972.000000	0.014715
1970.000000	0.014819
1968.000000	0.014878
1966.000000	0.014900
1964.000000	0.014909
1962.000000	0.014909
1960.000000	0.014876
1958.000000	0.014791
1956.000000	0.014666
1954.000000	0.014530
1952.000000	0.014391
1950.000000	0.014256
1948.000000	0.014135
1946.000000	0.014025
1944.000000	0.013919
1942.000000	0.013816
1940.000000	0.013732
1938.000000	0.013685
1936.000000	0.013703
1934.000000	0.013799
1932.000000	0.013947
1930.000000	0.014128
1928.000000	0.014329
1926.000000	0.014540
1924.000000	0.014758
1922.000000	0.014960
1920.000000	0.015091
1918.000000	0.015115
1916.000000	0.015034
1914.000000	0.014863
1912.000000	0.014647
1910.000000	0.014444
1908.000000	0.014271
1906.000000	0.014113
1904.000000	0.013995
1902.000000	0.013941
1900.000000	0.013943
1898.000000	0.013992
1896.000000	0.014065
1894.000000	0.014131
1892.000000	0.014170
1890.000000	0.014182
1888.000000	0.014174
1886.000000	0.014147
1884.000000	0.014103
1882.000000	0.014053
1880.000000	0.014012
1878.000000	0.013970
1876.000000	0.013911
1874.000000	0.013836
1872.000000	0.013754
1870.000000	0.013669
1868.000000	0.013579
1866.000000	0.013478
1864.000000	0.013352
1862.000000	0.013210
1860.000000	0.013073
1858.000000	0.012952
1856.000000	0.012835
1854.000000	0.012713
1852.000000	0.012599
1850.000000	0.012514
1848.000000	0.012474
1846.000000	0.012478
1844.000000	0.012512
1842.000000	0.012569
1840.000000	0.012644
1838.000000	0.012719
1836.000000	0.012782
1834.000000	0.012815
1832.000000	0.012801
1830.000000	0.012730
1828.000000	0.012607
1826.000000	0.012456
1824.000000	0.012313
1822.000000	0.012200
1820.000000	0.012108
1818.000000	0.012025
1816.000000	0.011960
1814.000000	0.011936
1812.000000	0.011962
1810.000000	0.012015
1808.000000	0.012044
1806.000000	0.012023
1804.000000	0.011983
1802.000000	0.011964
1800.000000	0.011947
1798.000000	0.011900
1796.000000	0.011823
1794.000000	0.011723
1792.000000	0.011622
1790.000000	0.011551
1788.000000	0.011497
1786.000000	0.011422
1784.000000	0.011326
1782.000000	0.011249
1780.000000	0.011212
1778.000000	0.011210
1776.000000	0.011226
1774.000000	0.011237
1772.000000	0.011246
1770.000000	0.011276
1768.000000	0.011319
1766.000000	0.011360
1764.000000	0.011372
1762.000000	0.011348
1760.000000	0.011311
1758.000000	0.011291
1756.000000	0.011296
1754.000000	0.011305
1752.000000	0.011307
1750.000000	0.011305
1748.000000	0.011311
1746.000000	0.011346
1744.000000	0.011390
1742.000000	0.011416
1740.000000	0.011411
1738.000000	0.011370
1736.000000	0.011310
1734.000000	0.011250
1732.000000	0.011194
1730.000000	0.011123
1728.000000	0.011023
1726.000000	0.010913
1724.000000	0.010816
1722.000000	0.010751
1720.000000	0.010718
1718.000000	0.010702
1716.000000	0.010679
1714.000000	0.010658
1712.000000	0.010656
1710.000000	0.010668
1708.000000	0.010681
1706.000000	0.010683
1704.000000	0.010679
1702.000000	0.010663
1700.000000	0.010632
1698.000000	0.010602
1696.000000	0.010613
1694.000000	0.010671
1692.000000	0.010745
1690.000000	0.010829
1688.000000	0.010924
1686.000000	0.011037
1684.000000	0.011185
1682.000000	0.011362
1680.000000	0.011543
1678.000000	0.011697
1676.000000	0.011816
1674.000000	0.011905
1672.000000	0.011983
1670.000000	0.012085
1668.000000	0.012232
1666.000000	0.012411
1664.000000	0.012602
1662.000000	0.012809
1660.000000	0.013065
1658.000000	0.013395
1656.000000	0.013786
1654.000000	0.014210
1652.000000	0.014602
1650.000000	0.014895
1648.000000	0.015129
1646.000000	0.015343
1644.000000	0.015539
1642.000000	0.015719
1640.000000	0.015879
1638.000000	0.016033
1636.000000	0.016242
1634.000000	0.016595
1632.000000	0.017109
1630.000000	0.017736
1628.000000	0.018432
1626.000000	0.019177
1624.000000	0.019964
1622.000000	0.020776
1620.000000	0.021553
1618.000000	0.022236
1616.000000	0.022785
1614.000000	0.023189
1612.000000	0.023479
1610.000000	0.023675
1608.000000	0.023786
1606.000000	0.023810
1604.000000	0.023740
1602.000000	0.023593
1600.000000	0.023409
1598.000000	0.023224
1596.000000	0.023042
1594.000000	0.022845
1592.000000	0.022614
1590.000000	0.022358
1588.000000	0.022112
1586.000000	0.021912
1584.000000	0.021764
1582.000000	0.021637
1580.000000	0.021510
1578.000000	0.021399
1576.000000	0.021353
1574.000000	0.021408
1572.000000	0.021540
1570.000000	0.021707
1568.000000	0.021891
1566.000000	0.022093
1564.000000	0.022342
1562.000000	0.022662
1560.000000	0.023038
1558.000000	0.023400
1556.000000	0.023712
1554.000000	0.024065
1552.000000	0.024504
1550.000000	0.025044
1548.000000	0.025669
1546.000000	0.026346
1544.000000	0.027077
1542.000000	0.027891
1540.000000	0.028800
1538.000000	0.029762
1536.000000	0.030736
1534.000000	0.031702
1532.000000	0.032662
1530.000000	0.033644
1528.000000	0.034673
1526.000000	0.035757
1524.000000	0.036899
1522.000000	0.038123
1520.000000	0.039447
1518.000000	0.040837
1516.000000	0.042257
1514.000000	0.043670
1512.000000	0.045050
1510.000000	0.046376
1508.000000	0.047607
1506.000000	0.048682
1504.000000	0.049593
1502.000000	0.050377
1500.000000	0.051056
1498.000000	0.051648
1496.000000	0.052143
1494.000000	0.052505
1492.000000	0.052747
1490.000000	0.052904
1488.000000	0.052959
1486.000000	0.052863
1484.000000	0.052602
1482.000000	0.052173
1480.000000	0.051601
1478.000000	0.050911
1476.000000	0.050110
1474.000000	0.049219
1472.000000	0.048270
1470.000000	0.047310
1468.000000	0.046388
1466.000000	0.045526
1464.000000	0.044736
1462.000000	0.044048
1460.000000	0.043488
1458.000000	0.043036
1456.000000	0.042650
1454.000000	0.042349
1452.000000	0.042146
1450.000000	0.042046
1448.000000	0.042041
1446.000000	0.042083
1444.000000	0.042125
1442.000000	0.042163
1440.000000	0.042218
1438.000000	0.042289
1436.000000	0.042343
1434.000000	0.042311
1432.000000	0.042149
1430.000000	0.041867
1428.000000	0.041488
1426.000000	0.041005
1424.000000	0.040388
1422.000000	0.039613
1420.000000	0.038660
1418.000000	0.037547
1416.000000	0.036332
1414.000000	0.035027
1412.000000	0.033616
1410.000000	0.032107
1408.000000	0.030552
1406.000000	0.029004
1404.000000	0.027493
1402.000000	0.026042
1400.000000	0.024653
1398.000000	0.023329
1396.000000	0.022114
1394.000000	0.021040
1392.000000	0.020103
1390.000000	0.019278
1388.000000	0.018534
1386.000000	0.017842
1384.000000	0.017173
1382.000000	0.016516
1380.000000	0.015872
1378.000000	0.015234
1376.000000	0.014595
1374.000000	0.013949
1372.000000	0.013317
1370.000000	0.012742
1368.000000	0.012251
1366.000000	0.011853
1364.000000	0.011530
1362.000000	0.011254
1360.000000	0.010999
1358.000000	0.010766
1356.000000	0.010558
1354.000000	0.010374
1352.000000	0.010207
1350.000000	0.010030
1348.000000	0.009827
1346.000000	0.009605
1344.000000	0.009381
1342.000000	0.009167
1340.000000	0.008964
1338.000000	0.008750
1336.000000	0.008509
1334.000000	0.008261
1332.000000	0.008035
1330.000000	0.007842
1328.000000	0.007686
1326.000000	0.007560
1324.000000	0.007456
1322.000000	0.007363
1320.000000	0.007281
1318.000000	0.007211
1316.000000	0.007142
1314.000000	0.007069
1312.000000	0.006992
1310.000000	0.006907
1308.000000	0.006809
1306.000000	0.006708
1304.000000	0.006621
1302.000000	0.006555
1300.000000	0.006506
1298.000000	0.006468
1296.000000	0.006445
1294.000000	0.006434
1292.000000	0.006431
1290.000000	0.006445
1288.000000	0.006488
1286.000000	0.006547
1284.000000	0.006612
1282.000000	0.006692
1280.000000	0.006789
1278.000000	0.006909
1276.000000	0.007065
1274.000000	0.007242
1272.000000	0.007409
1270.000000	0.007553
1268.000000	0.007681
1266.000000	0.007803
1264.000000	0.007914
1262.000000	0.007998
1260.000000	0.008036
1258.000000	0.008031
1256.000000	0.008000
1254.000000	0.007950
1252.000000	0.007876
1250.000000	0.007786
1248.000000	0.007689
1246.000000	0.007584
1244.000000	0.007476
1242.000000	0.007377
1240.000000	0.007297
1238.000000	0.007254
1236.000000	0.007267
1234.000000	0.007345
1232.000000	0.007486
1230.000000	0.007698
1228.000000	0.008012
1226.000000	0.008446
1224.000000	0.008992
1222.000000	0.009648
1220.000000	0.010423
1218.000000	0.011308
1216.000000	0.012291
1214.000000	0.013380
1212.000000	0.014566
1210.000000	0.015822
1208.000000	0.017124
1206.000000	0.018441
1204.000000	0.019733
1202.000000	0.020981
1200.000000	0.022176
1198.000000	0.023299
1196.000000	0.024318
1194.000000	0.025224
1192.000000	0.026012
1190.000000	0.026679
1188.000000	0.027237
1186.000000	0.027693
1184.000000	0.028039
1182.000000	0.028280
1180.000000	0.028420
1178.000000	0.028464
1176.000000	0.028446
1174.000000	0.028398
1172.000000	0.028342
1170.000000	0.028314
1168.000000	0.028359
1166.000000	0.028487
1164.000000	0.028697
1162.000000	0.028997
1160.000000	0.029375
1158.000000	0.029807
1156.000000	0.030280
1154.000000	0.030791
1152.000000	0.031330
1150.000000	0.031880
1148.000000	0.032443
1146.000000	0.033031
1144.000000	0.033665
1142.000000	0.034389
1140.000000	0.035236
1138.000000	0.036186
1136.000000	0.037195
1134.000000	0.038263
1132.000000	0.039408
1130.000000	0.040621
1128.000000	0.041869
1126.000000	0.043107
1124.000000	0.044303
1122.000000	0.045433
1120.000000	0.046491
1118.000000	0.047461
1116.000000	0.048321
1114.000000	0.049055
1112.000000	0.049648
1110.000000	0.050069
1108.000000	0.050274
1106.000000	0.050238
1104.000000	0.049964
1102.000000	0.049459
1100.000000	0.048712
1098.000000	0.047704
1096.000000	0.046427
1094.000000	0.044894
1092.000000	0.043157
1090.000000	0.041283
1088.000000	0.039317
1086.000000	0.037279
1084.000000	0.035178
1082.000000	0.033052
1080.000000	0.030961
1078.000000	0.028961
1076.000000	0.027099
1074.000000	0.025376
1072.000000	0.023773
1070.000000	0.022299
1068.000000	0.020972
1066.000000	0.019784
1064.000000	0.018722
1062.000000	0.017766
1060.000000	0.016894
1058.000000	0.016094
1056.000000	0.015358
1054.000000	0.014667
1052.000000	0.014009
1050.000000	0.013375
1048.000000	0.012741
1046.000000	0.012092
1044.000000	0.011439
1042.000000	0.010791
1040.000000	0.010161
1038.000000	0.009564
1036.000000	0.009010
1034.000000	0.008503
1032.000000	0.008060
1030.000000	0.007704
1028.000000	0.007411
1026.000000	0.007147
1024.000000	0.006904
1022.000000	0.006674
1020.000000	0.006430
1018.000000	0.006147
1016.000000	0.005807
1014.000000	0.005384
1012.000000	0.004893
1010.000000	0.004388
1008.000000	0.003897
1006.000000	0.003413
1004.000000	0.002923
1002.000000	0.002441
1000.000000	0.002014
998.000000	0.001677
996.000000	0.001418
994.000000	0.001186
992.000000	0.000937
990.000000	0.000651
988.000000	0.000343
986.000000	0.000040
984.000000	-0.000244
982.000000	-0.000535
980.000000	-0.000874
978.000000	-0.001253
976.000000	-0.001631
974.000000	-0.001977
972.000000	-0.002291
970.000000	-0.002588
968.000000	-0.002905
966.000000	-0.003257
964.000000	-0.003610
962.000000	-0.003919
960.000000	-0.004174
958.000000	-0.004380
956.000000	-0.004531
954.000000	-0.004623
952.000000	-0.004651
950.000000	-0.004605
948.000000	-0.004503
946.000000	-0.004390
944.000000	-0.004314
942.000000	-0.004310
940.000000	-0.004399
938.000000	-0.004589
936.000000	-0.004869
934.000000	-0.005209
932.000000	-0.005570
930.000000	-0.005927
928.000000	-0.006260
926.000000	-0.006543
924.000000	-0.006762
922.000000	-0.006916
920.000000	-0.007014
918.000000	-0.007097
916.000000	-0.007199
914.000000	-0.007314
912.000000	-0.007402
910.000000	-0.007442
908.000000	-0.007431
906.000000	-0.007356
904.000000	-0.007215
902.000000	-0.006996
900.000000	-0.006678
898.000000	-0.006258
896.000000	-0.005732
894.000000	-0.005097
892.000000	-0.004351
890.000000	-0.003513
888.000000	-0.002634
886.000000	-0.001756
884.000000	-0.000898
882.000000	-0.000096
880.000000	0.000540
878.000000	0.000866
876.000000	0.000799
874.000000	0.000351
872.000000	-0.000401
870.000000	-0.001381
868.000000	-0.002541
866.000000	-0.003826
864.000000	-0.005135
862.000000	-0.006314
860.000000	-0.007216
858.000000	-0.007788
856.000000	-0.008063
854.000000	-0.008053
852.000000	-0.007734
850.000000	-0.007133
848.000000	-0.006339
846.000000	-0.005407
844.000000	-0.004358
842.000000	-0.003255
840.000000	-0.002152
838.000000	-0.001071
836.000000	-0.000062
834.000000	0.000805
832.000000	0.001518
830.000000	0.002094
828.000000	0.002525
826.000000	0.002816
824.000000	0.003007
822.000000	0.003109
820.000000	0.003138
818.000000	0.003146
816.000000	0.003187
814.000000	0.003271
812.000000	0.003353
810.000000	0.003387
808.000000	0.003368
806.000000	0.003270
804.000000	0.003080
802.000000	0.002819
800.000000	0.002504
798.000000	0.002149
796.000000	0.001817
794.000000	0.001574
792.000000	0.001428
790.000000	0.001408
788.000000	0.001547
786.000000	0.001807
784.000000	0.002116
782.000000	0.002411
780.000000	0.002628
778.000000	0.002719
776.000000	0.002720
774.000000	0.002694
772.000000	0.002664
770.000000	0.002642
768.000000	0.002632
766.000000	0.002676
764.000000	0.002820
762.000000	0.003057
760.000000	0.003378
758.000000	0.003750
756.000000	0.004155
754.000000	0.004577
752.000000	0.004974
750.000000	0.005327
748.000000	0.005652
746.000000	0.006002
744.000000	0.006383
742.000000	0.006687
740.000000	0.006785
738.000000	0.006694
736.000000	0.006570
734.000000	0.006524
732.000000	0.006644
730.000000	0.006940
728.000000	0.007188
726.000000	0.007211
724.000000	0.007185
722.000000	0.007282
720.000000	0.007334
718.000000	0.007267
716.000000	0.007071
714.000000	0.006352
712.000000	0.005114
710.000000	0.003991
708.000000	0.003149
706.000000	0.002348
704.000000	0.001623
702.000000	0.000732
700.000000	-0.000718
