PE IR       SUBTECH     SPECTRUM    ASCII       PEDS        4.00        
   -1
p1_abs_unf.asc
14/08/15
13:04:27.00
14/08/21
11:59:14.00
thompson.2166
Co-added spectrum 5 at 628, 643 (Image Marker 1)
700.000000
#HDR
-1
-1
#GR
cm-1
A
1.0
0.0
4000.000000
-2.000000
1651
8
0.069395
-0.058752
#DATA
4000.000000	0.039286
3998.000000	0.040341
3996.000000	0.041295
3994.000000	0.042064
3992.000000	0.042604
3990.000000	0.042901
3988.000000	0.042958
3986.000000	0.042769
3984.000000	0.042327
3982.000000	0.041678
3980.000000	0.040945
3978.000000	0.040259
3976.000000	0.039686
3974.000000	0.039230
3972.000000	0.038905
3970.000000	0.038772
3968.000000	0.038793
3966.000000	0.038845
3964.000000	0.038910
3962.000000	0.039014
3960.000000	0.039097
3958.000000	0.039120
3956.000000	0.039141
3954.000000	0.039282
3952.000000	0.039545
3950.000000	0.039780
3948.000000	0.039921
3946.000000	0.040086
3944.000000	0.040352
3942.000000	0.040607
3940.000000	0.040716
3938.000000	0.040707
3936.000000	0.040675
3934.000000	0.040582
3932.000000	0.040354
3930.000000	0.040063
3928.000000	0.039766
3926.000000	0.039430
3924.000000	0.039058
3922.000000	0.038700
3920.000000	0.038445
3918.000000	0.038302
3916.000000	0.038165
3914.000000	0.037974
3912.000000	0.037731
3910.000000	0.037499
3908.000000	0.037341
3906.000000	0.037255
3904.000000	0.037222
3902.000000	0.037216
3900.000000	0.037320
3898.000000	0.037625
3896.000000	0.037972
3894.000000	0.038200
3892.000000	0.038301
3890.000000	0.038329
3888.000000	0.038322
3886.000000	0.038290
3884.000000	0.038225
3882.000000	0.038122
3880.000000	0.038063
3878.000000	0.038074
3876.000000	0.038082
3874.000000	0.038057
3872.000000	0.037992
3870.000000	0.037900
3868.000000	0.037745
3866.000000	0.037347
3864.000000	0.036809
3862.000000	0.036385
3860.000000	0.036143
3858.000000	0.036038
3856.000000	0.036065
3854.000000	0.036354
3852.000000	0.037022
3850.000000	0.037718
3848.000000	0.038120
3846.000000	0.038157
3844.000000	0.037907
3842.000000	0.037438
3840.000000	0.036734
3838.000000	0.035887
3836.000000	0.035168
3834.000000	0.034752
3832.000000	0.034701
3830.000000	0.034970
3828.000000	0.035467
3826.000000	0.036148
3824.000000	0.036872
3822.000000	0.037464
3820.000000	0.037838
3818.000000	0.037892
3816.000000	0.037691
3814.000000	0.037382
3812.000000	0.036994
3810.000000	0.036578
3808.000000	0.036233
3806.000000	0.036058
3804.000000	0.036020
3802.000000	0.035968
3800.000000	0.035852
3798.000000	0.035649
3796.000000	0.035406
3794.000000	0.035178
3792.000000	0.034931
3790.000000	0.034716
3788.000000	0.034606
3786.000000	0.034585
3784.000000	0.034577
3782.000000	0.034464
3780.000000	0.034272
3778.000000	0.034095
3776.000000	0.033849
3774.000000	0.033456
3772.000000	0.032971
3770.000000	0.032522
3768.000000	0.032194
3766.000000	0.031889
3764.000000	0.031510
3762.000000	0.031185
3760.000000	0.031076
3758.000000	0.031158
3756.000000	0.031268
3754.000000	0.031325
3752.000000	0.031379
3750.000000	0.031532
3748.000000	0.031681
3746.000000	0.031623
3744.000000	0.031418
3742.000000	0.031210
3740.000000	0.031064
3738.000000	0.030968
3736.000000	0.030887
3734.000000	0.030904
3732.000000	0.031070
3730.000000	0.031290
3728.000000	0.031459
3726.000000	0.031516
3724.000000	0.031483
3722.000000	0.031429
3720.000000	0.031373
3718.000000	0.031276
3716.000000	0.031136
3714.000000	0.031060
3712.000000	0.031169
3710.000000	0.031418
3708.000000	0.031656
3706.000000	0.031838
3704.000000	0.031930
3702.000000	0.031896
3700.000000	0.031669
3698.000000	0.031216
3696.000000	0.030646
3694.000000	0.030098
3692.000000	0.029681
3690.000000	0.029532
3688.000000	0.029705
3686.000000	0.030109
3684.000000	0.030677
3682.000000	0.031320
3680.000000	0.031942
3678.000000	0.032456
3676.000000	0.032765
3674.000000	0.032816
3672.000000	0.032637
3670.000000	0.032289
3668.000000	0.031817
3666.000000	0.031213
3664.000000	0.030515
3662.000000	0.029762
3660.000000	0.029051
3658.000000	0.028499
3656.000000	0.028178
3654.000000	0.028085
3652.000000	0.028179
3650.000000	0.028531
3648.000000	0.029263
3646.000000	0.030132
3644.000000	0.030893
3642.000000	0.031519
3640.000000	0.032030
3638.000000	0.032483
3636.000000	0.032867
3634.000000	0.033111
3632.000000	0.033287
3630.000000	0.033465
3628.000000	0.033595
3626.000000	0.033639
3624.000000	0.033566
3622.000000	0.033414
3620.000000	0.033315
3618.000000	0.033310
3616.000000	0.033331
3614.000000	0.033443
3612.000000	0.033723
3610.000000	0.034130
3608.000000	0.034541
3606.000000	0.034835
3604.000000	0.034992
3602.000000	0.035072
3600.000000	0.035102
3598.000000	0.035108
3596.000000	0.035097
3594.000000	0.035146
3592.000000	0.035269
3590.000000	0.035399
3588.000000	0.035577
3586.000000	0.035800
3584.000000	0.035962
3582.000000	0.036051
3580.000000	0.036002
3578.000000	0.035881
3576.000000	0.035850
3574.000000	0.035849
3572.000000	0.035710
3570.000000	0.035441
3568.000000	0.035221
3566.000000	0.035244
3564.000000	0.035356
3562.000000	0.035345
3560.000000	0.035292
3558.000000	0.035380
3556.000000	0.035633
3554.000000	0.035912
3552.000000	0.036154
3550.000000	0.036410
3548.000000	0.036669
3546.000000	0.036893
3544.000000	0.037000
3542.000000	0.036888
3540.000000	0.036647
3538.000000	0.036410
3536.000000	0.036222
3534.000000	0.036120
3532.000000	0.036168
3530.000000	0.036447
3528.000000	0.036917
3526.000000	0.037328
3524.000000	0.037535
3522.000000	0.037627
3520.000000	0.037701
3518.000000	0.037746
3516.000000	0.037711
3514.000000	0.037621
3512.000000	0.037585
3510.000000	0.037641
3508.000000	0.037706
3506.000000	0.037689
3504.000000	0.037606
3502.000000	0.037537
3500.000000	0.037536
3498.000000	0.037608
3496.000000	0.037705
3494.000000	0.037772
3492.000000	0.037797
3490.000000	0.037743
3488.000000	0.037632
3486.000000	0.037528
3484.000000	0.037396
3482.000000	0.037221
3480.000000	0.037045
3478.000000	0.036923
3476.000000	0.036917
3474.000000	0.036991
3472.000000	0.037057
3470.000000	0.037094
3468.000000	0.037123
3466.000000	0.037170
3464.000000	0.037213
3462.000000	0.037218
3460.000000	0.037173
3458.000000	0.037038
3456.000000	0.036818
3454.000000	0.036573
3452.000000	0.036280
3450.000000	0.035844
3448.000000	0.035256
3446.000000	0.034616
3444.000000	0.034045
3442.000000	0.033571
3440.000000	0.033190
3438.000000	0.032976
3436.000000	0.032998
3434.000000	0.033201
3432.000000	0.033481
3430.000000	0.033741
3428.000000	0.033913
3426.000000	0.033933
3424.000000	0.033711
3422.000000	0.033261
3420.000000	0.032726
3418.000000	0.032196
3416.000000	0.031703
3414.000000	0.031292
3412.000000	0.030968
3410.000000	0.030750
3408.000000	0.030667
3406.000000	0.030632
3404.000000	0.030511
3402.000000	0.030312
3400.000000	0.030147
3398.000000	0.030062
3396.000000	0.029996
3394.000000	0.029843
3392.000000	0.029616
3390.000000	0.029436
3388.000000	0.029301
3386.000000	0.029078
3384.000000	0.028720
3382.000000	0.028336
3380.000000	0.028052
3378.000000	0.027916
3376.000000	0.027922
3374.000000	0.028035
3372.000000	0.028287
3370.000000	0.028730
3368.000000	0.029258
3366.000000	0.029738
3364.000000	0.030147
3362.000000	0.030506
3360.000000	0.030846
3358.000000	0.031108
3356.000000	0.031216
3354.000000	0.031196
3352.000000	0.031061
3350.000000	0.030804
3348.000000	0.030465
3346.000000	0.030090
3344.000000	0.029728
3342.000000	0.029413
3340.000000	0.029172
3338.000000	0.029008
3336.000000	0.028843
3334.000000	0.028598
3332.000000	0.028269
3330.000000	0.027900
3328.000000	0.027563
3326.000000	0.027285
3324.000000	0.027049
3322.000000	0.026885
3320.000000	0.026850
3318.000000	0.026935
3316.000000	0.027056
3314.000000	0.027129
3312.000000	0.027139
3310.000000	0.027144
3308.000000	0.027168
3306.000000	0.027166
3304.000000	0.027143
3302.000000	0.027152
3300.000000	0.027201
3298.000000	0.027274
3296.000000	0.027339
3294.000000	0.027364
3292.000000	0.027342
3290.000000	0.027243
3288.000000	0.027033
3286.000000	0.026723
3284.000000	0.026349
3282.000000	0.025965
3280.000000	0.025622
3278.000000	0.025315
3276.000000	0.025058
3274.000000	0.024880
3272.000000	0.024738
3270.000000	0.024588
3268.000000	0.024388
3266.000000	0.024071
3264.000000	0.023652
3262.000000	0.023232
3260.000000	0.022930
3258.000000	0.022783
3256.000000	0.022732
3254.000000	0.022786
3252.000000	0.023012
3250.000000	0.023366
3248.000000	0.023704
3246.000000	0.023940
3244.000000	0.024150
3242.000000	0.024378
3240.000000	0.024531
3238.000000	0.024601
3236.000000	0.024661
3234.000000	0.024712
3232.000000	0.024648
3230.000000	0.024382
3228.000000	0.023990
3226.000000	0.023590
3224.000000	0.023178
3222.000000	0.022735
3220.000000	0.022344
3218.000000	0.022114
3216.000000	0.022046
3214.000000	0.022076
3212.000000	0.022113
3210.000000	0.022092
3208.000000	0.022044
3206.000000	0.021956
3204.000000	0.021754
3202.000000	0.021452
3200.000000	0.021130
3198.000000	0.020873
3196.000000	0.020666
3194.000000	0.020411
3192.000000	0.020129
3190.000000	0.019909
3188.000000	0.019752
3186.000000	0.019647
3184.000000	0.019635
3182.000000	0.019761
3180.000000	0.020000
3178.000000	0.020261
3176.000000	0.020513
3174.000000	0.020766
3172.000000	0.020980
3170.000000	0.021062
3168.000000	0.020993
3166.000000	0.020865
3164.000000	0.020711
3162.000000	0.020469
3160.000000	0.020097
3158.000000	0.019644
3156.000000	0.019206
3154.000000	0.018810
3152.000000	0.018477
3150.000000	0.018258
3148.000000	0.018146
3146.000000	0.018125
3144.000000	0.018165
3142.000000	0.018190
3140.000000	0.018131
3138.000000	0.017956
3136.000000	0.017688
3134.000000	0.017379
3132.000000	0.017047
3130.000000	0.016717
3128.000000	0.016482
3126.000000	0.016387
3124.000000	0.016377
3122.000000	0.016412
3120.000000	0.016481
3118.000000	0.016561
3116.000000	0.016649
3114.000000	0.016705
3112.000000	0.016679
3110.000000	0.016587
3108.000000	0.016439
3106.000000	0.016215
3104.000000	0.015910
3102.000000	0.015538
3100.000000	0.015164
3098.000000	0.014842
3096.000000	0.014556
3094.000000	0.014306
3092.000000	0.014174
3090.000000	0.014226
3088.000000	0.014439
3086.000000	0.014715
3084.000000	0.014995
3082.000000	0.015302
3080.000000	0.015624
3078.000000	0.015881
3076.000000	0.016012
3074.000000	0.015985
3072.000000	0.015830
3070.000000	0.015636
3068.000000	0.015459
3066.000000	0.015340
3064.000000	0.015312
3062.000000	0.015373
3060.000000	0.015505
3058.000000	0.015670
3056.000000	0.015795
3054.000000	0.015801
3052.000000	0.015679
3050.000000	0.015476
3048.000000	0.015228
3046.000000	0.014968
3044.000000	0.014716
3042.000000	0.014479
3040.000000	0.014246
3038.000000	0.013968
3036.000000	0.013610
3034.000000	0.013208
3032.000000	0.012816
3030.000000	0.012464
3028.000000	0.012212
3026.000000	0.012104
3024.000000	0.012114
3022.000000	0.012208
3020.000000	0.012351
3018.000000	0.012506
3016.000000	0.012656
3014.000000	0.012769
3012.000000	0.012848
3010.000000	0.012979
3008.000000	0.013186
3006.000000	0.013396
3004.000000	0.013592
3002.000000	0.013804
3000.000000	0.014014
2998.000000	0.014154
2996.000000	0.014155
2994.000000	0.014034
2992.000000	0.013892
2990.000000	0.013745
2988.000000	0.013539
2986.000000	0.013317
2984.000000	0.013158
2982.000000	0.013084
2980.000000	0.013061
2978.000000	0.013027
2976.000000	0.012995
2974.000000	0.013026
2972.000000	0.013074
2970.000000	0.013059
2968.000000	0.012999
2966.000000	0.012968
2964.000000	0.012986
2962.000000	0.012993
2960.000000	0.012920
2958.000000	0.012792
2956.000000	0.012683
2954.000000	0.012595
2952.000000	0.012481
2950.000000	0.012311
2948.000000	0.012112
2946.000000	0.011950
2944.000000	0.011860
2942.000000	0.011813
2940.000000	0.011753
2938.000000	0.011659
2936.000000	0.011558
2934.000000	0.011473
2932.000000	0.011388
2930.000000	0.011275
2928.000000	0.011126
2926.000000	0.010977
2924.000000	0.010823
2922.000000	0.010604
2920.000000	0.010337
2918.000000	0.010055
2916.000000	0.009744
2914.000000	0.009420
2912.000000	0.009144
2910.000000	0.008952
2908.000000	0.008801
2906.000000	0.008655
2904.000000	0.008576
2902.000000	0.008613
2900.000000	0.008715
2898.000000	0.008816
2896.000000	0.008945
2894.000000	0.009180
2892.000000	0.009450
2890.000000	0.009605
2888.000000	0.009606
2886.000000	0.009492
2884.000000	0.009338
2882.000000	0.009192
2880.000000	0.009045
2878.000000	0.008925
2876.000000	0.008880
2874.000000	0.008909
2872.000000	0.008957
2870.000000	0.008935
2868.000000	0.008816
2866.000000	0.008670
2864.000000	0.008516
2862.000000	0.008317
2860.000000	0.008122
2858.000000	0.007995
2856.000000	0.007913
2854.000000	0.007855
2852.000000	0.007818
2850.000000	0.007789
2848.000000	0.007737
2846.000000	0.007586
2844.000000	0.007351
2842.000000	0.007107
2840.000000	0.006833
2838.000000	0.006497
2836.000000	0.006166
2834.000000	0.005914
2832.000000	0.005738
2830.000000	0.005575
2828.000000	0.005417
2826.000000	0.005311
2824.000000	0.005251
2822.000000	0.005178
2820.000000	0.005065
2818.000000	0.004961
2816.000000	0.004920
2814.000000	0.004937
2812.000000	0.004965
2810.000000	0.004991
2808.000000	0.005026
2806.000000	0.005055
2804.000000	0.005035
2802.000000	0.004956
2800.000000	0.004823
2798.000000	0.004632
2796.000000	0.004404
2794.000000	0.004154
2792.000000	0.003917
2790.000000	0.003733
2788.000000	0.003561
2786.000000	0.003344
2784.000000	0.003109
2782.000000	0.002908
2780.000000	0.002739
2778.000000	0.002530
2776.000000	0.002233
2774.000000	0.001931
2772.000000	0.001705
2770.000000	0.001516
2768.000000	0.001295
2766.000000	0.001054
2764.000000	0.000852
2762.000000	0.000684
2760.000000	0.000489
2758.000000	0.000281
2756.000000	0.000126
2754.000000	0.000049
2752.000000	0.000023
2750.000000	0.000014
2748.000000	0.000069
2746.000000	0.000228
2744.000000	0.000406
2742.000000	0.000506
2740.000000	0.000502
2738.000000	0.000439
2736.000000	0.000352
2734.000000	0.000184
2732.000000	-0.000120
2730.000000	-0.000504
2728.000000	-0.000870
2726.000000	-0.001185
2724.000000	-0.001460
2722.000000	-0.001689
2720.000000	-0.001835
2718.000000	-0.001850
2716.000000	-0.001761
2714.000000	-0.001676
2712.000000	-0.001653
2710.000000	-0.001695
2708.000000	-0.001830
2706.000000	-0.002068
2704.000000	-0.002405
2702.000000	-0.002774
2700.000000	-0.003044
2698.000000	-0.003175
2696.000000	-0.003176
2694.000000	-0.003069
2692.000000	-0.002932
2690.000000	-0.002815
2688.000000	-0.002756
2686.000000	-0.002808
2684.000000	-0.002986
2682.000000	-0.003266
2680.000000	-0.003586
2678.000000	-0.003890
2676.000000	-0.004166
2674.000000	-0.004387
2672.000000	-0.004541
2670.000000	-0.004632
2668.000000	-0.004674
2666.000000	-0.004697
2664.000000	-0.004697
2662.000000	-0.004696
2660.000000	-0.004752
2658.000000	-0.004857
2656.000000	-0.005008
2654.000000	-0.005230
2652.000000	-0.005511
2650.000000	-0.005842
2648.000000	-0.006198
2646.000000	-0.006527
2644.000000	-0.006802
2642.000000	-0.007011
2640.000000	-0.007158
2638.000000	-0.007249
2636.000000	-0.007284
2634.000000	-0.007287
2632.000000	-0.007284
2630.000000	-0.007265
2628.000000	-0.007222
2626.000000	-0.007165
2624.000000	-0.007081
2622.000000	-0.006954
2620.000000	-0.006831
2618.000000	-0.006787
2616.000000	-0.006854
2614.000000	-0.007019
2612.000000	-0.007251
2610.000000	-0.007505
2608.000000	-0.007750
2606.000000	-0.007940
2604.000000	-0.008003
2602.000000	-0.007939
2600.000000	-0.007827
2598.000000	-0.007733
2596.000000	-0.007665
2594.000000	-0.007616
2592.000000	-0.007638
2590.000000	-0.007785
2588.000000	-0.008028
2586.000000	-0.008284
2584.000000	-0.008528
2582.000000	-0.008811
2580.000000	-0.009145
2578.000000	-0.009444
2576.000000	-0.009641
2574.000000	-0.009721
2572.000000	-0.009697
2570.000000	-0.009589
2568.000000	-0.009400
2566.000000	-0.009169
2564.000000	-0.009002
2562.000000	-0.008983
2560.000000	-0.009109
2558.000000	-0.009335
2556.000000	-0.009606
2554.000000	-0.009879
2552.000000	-0.010113
2550.000000	-0.010258
2548.000000	-0.010303
2546.000000	-0.010271
2544.000000	-0.010186
2542.000000	-0.010113
2540.000000	-0.010106
2538.000000	-0.010158
2536.000000	-0.010267
2534.000000	-0.010435
2532.000000	-0.010640
2530.000000	-0.010882
2528.000000	-0.011134
2526.000000	-0.011339
2524.000000	-0.011494
2522.000000	-0.011640
2520.000000	-0.011806
2518.000000	-0.012016
2516.000000	-0.012272
2514.000000	-0.012561
2512.000000	-0.012877
2510.000000	-0.013169
2508.000000	-0.013377
2506.000000	-0.013509
2504.000000	-0.013584
2502.000000	-0.013615
2500.000000	-0.013634
2498.000000	-0.013728
2496.000000	-0.013987
2494.000000	-0.014375
2492.000000	-0.014772
2490.000000	-0.015151
2488.000000	-0.015549
2486.000000	-0.015945
2484.000000	-0.016240
2482.000000	-0.016370
2480.000000	-0.016400
2478.000000	-0.016404
2476.000000	-0.016352
2474.000000	-0.016177
2472.000000	-0.015896
2470.000000	-0.015612
2468.000000	-0.015390
2466.000000	-0.015245
2464.000000	-0.015207
2462.000000	-0.015335
2460.000000	-0.015664
2458.000000	-0.016124
2456.000000	-0.016594
2454.000000	-0.017011
2452.000000	-0.017352
2450.000000	-0.017612
2448.000000	-0.017791
2446.000000	-0.017887
2444.000000	-0.017957
2442.000000	-0.018082
2440.000000	-0.018302
2438.000000	-0.018576
2436.000000	-0.018832
2434.000000	-0.019076
2432.000000	-0.019326
2430.000000	-0.019543
2428.000000	-0.019671
2426.000000	-0.019685
2424.000000	-0.019610
2422.000000	-0.019465
2420.000000	-0.019246
2418.000000	-0.018965
2416.000000	-0.018647
2414.000000	-0.018338
2412.000000	-0.018090
2410.000000	-0.017946
2408.000000	-0.017918
2406.000000	-0.017969
2404.000000	-0.018079
2402.000000	-0.018283
2400.000000	-0.018586
2398.000000	-0.018930
2396.000000	-0.019250
2394.000000	-0.019552
2392.000000	-0.019898
2390.000000	-0.020285
2388.000000	-0.020587
2386.000000	-0.020691
2384.000000	-0.020606
2382.000000	-0.020349
2380.000000	-0.019857
2378.000000	-0.019066
2376.000000	-0.018140
2374.000000	-0.017460
2372.000000	-0.017245
2370.000000	-0.017409
2368.000000	-0.017856
2366.000000	-0.018618
2364.000000	-0.019714
2362.000000	-0.020864
2360.000000	-0.021679
2358.000000	-0.021994
2356.000000	-0.021903
2354.000000	-0.021678
2352.000000	-0.021428
2350.000000	-0.021091
2348.000000	-0.020724
2346.000000	-0.020442
2344.000000	-0.020313
2342.000000	-0.020356
2340.000000	-0.020516
2338.000000	-0.020777
2336.000000	-0.021184
2334.000000	-0.021680
2332.000000	-0.022153
2330.000000	-0.022551
2328.000000	-0.022853
2326.000000	-0.022980
2324.000000	-0.022876
2322.000000	-0.022563
2320.000000	-0.022162
2318.000000	-0.021888
2316.000000	-0.021839
2314.000000	-0.021929
2312.000000	-0.022124
2310.000000	-0.022463
2308.000000	-0.022924
2306.000000	-0.023405
2304.000000	-0.023803
2302.000000	-0.024139
2300.000000	-0.024492
2298.000000	-0.024855
2296.000000	-0.025195
2294.000000	-0.025533
2292.000000	-0.025923
2290.000000	-0.026316
2288.000000	-0.026584
2286.000000	-0.026721
2284.000000	-0.026819
2282.000000	-0.026903
2280.000000	-0.026909
2278.000000	-0.026806
2276.000000	-0.026689
2274.000000	-0.026661
2272.000000	-0.026693
2270.000000	-0.026711
2268.000000	-0.026737
2266.000000	-0.026838
2264.000000	-0.027010
2262.000000	-0.027169
2260.000000	-0.027261
2258.000000	-0.027339
2256.000000	-0.027455
2254.000000	-0.027560
2252.000000	-0.027610
2250.000000	-0.027623
2248.000000	-0.027652
2246.000000	-0.027723
2244.000000	-0.027796
2242.000000	-0.027846
2240.000000	-0.027892
2238.000000	-0.027955
2236.000000	-0.028052
2234.000000	-0.028165
2232.000000	-0.028266
2230.000000	-0.028355
2228.000000	-0.028437
2226.000000	-0.028533
2224.000000	-0.028639
2222.000000	-0.028716
2220.000000	-0.028791
2218.000000	-0.028898
2216.000000	-0.029008
2214.000000	-0.029068
2212.000000	-0.029031
2210.000000	-0.028927
2208.000000	-0.028804
2206.000000	-0.028629
2204.000000	-0.028396
2202.000000	-0.028197
2200.000000	-0.028143
2198.000000	-0.028260
2196.000000	-0.028482
2194.000000	-0.028759
2192.000000	-0.029117
2190.000000	-0.029560
2188.000000	-0.030010
2186.000000	-0.030367
2184.000000	-0.030587
2182.000000	-0.030703
2180.000000	-0.030778
2178.000000	-0.030806
2176.000000	-0.030734
2174.000000	-0.030572
2172.000000	-0.030413
2170.000000	-0.030303
2168.000000	-0.030194
2166.000000	-0.030025
2164.000000	-0.029787
2162.000000	-0.029523
2160.000000	-0.029268
2158.000000	-0.029009
2156.000000	-0.028734
2154.000000	-0.028489
2152.000000	-0.028351
2150.000000	-0.028360
2148.000000	-0.028503
2146.000000	-0.028743
2144.000000	-0.029034
2142.000000	-0.029353
2140.000000	-0.029677
2138.000000	-0.029944
2136.000000	-0.030104
2134.000000	-0.030153
2132.000000	-0.030123
2130.000000	-0.030065
2128.000000	-0.030032
2126.000000	-0.030030
2124.000000	-0.030067
2122.000000	-0.030169
2120.000000	-0.030318
2118.000000	-0.030511
2116.000000	-0.030739
2114.000000	-0.030939
2112.000000	-0.031123
2110.000000	-0.031346
2108.000000	-0.031622
2106.000000	-0.031967
2104.000000	-0.032346
2102.000000	-0.032669
2100.000000	-0.032899
2098.000000	-0.033055
2096.000000	-0.033142
2094.000000	-0.033132
2092.000000	-0.033023
2090.000000	-0.032896
2088.000000	-0.032838
2086.000000	-0.032878
2084.000000	-0.032978
2082.000000	-0.033067
2080.000000	-0.033123
2078.000000	-0.033138
2076.000000	-0.033079
2074.000000	-0.032928
2072.000000	-0.032698
2070.000000	-0.032442
2068.000000	-0.032231
2066.000000	-0.032098
2064.000000	-0.032052
2062.000000	-0.032089
2060.000000	-0.032171
2058.000000	-0.032264
2056.000000	-0.032365
2054.000000	-0.032490
2052.000000	-0.032635
2050.000000	-0.032782
2048.000000	-0.032955
2046.000000	-0.033202
2044.000000	-0.033515
2042.000000	-0.033814
2040.000000	-0.034036
2038.000000	-0.034185
2036.000000	-0.034263
2034.000000	-0.034232
2032.000000	-0.034063
2030.000000	-0.033791
2028.000000	-0.033489
2026.000000	-0.033212
2024.000000	-0.033007
2022.000000	-0.032907
2020.000000	-0.032940
2018.000000	-0.033121
2016.000000	-0.033414
2014.000000	-0.033770
2012.000000	-0.034151
2010.000000	-0.034506
2008.000000	-0.034805
2006.000000	-0.035037
2004.000000	-0.035199
2002.000000	-0.035314
2000.000000	-0.035404
1998.000000	-0.035478
1996.000000	-0.035538
1994.000000	-0.035594
1992.000000	-0.035661
1990.000000	-0.035734
1988.000000	-0.035810
1986.000000	-0.035925
1984.000000	-0.036104
1982.000000	-0.036324
1980.000000	-0.036555
1978.000000	-0.036795
1976.000000	-0.037048
1974.000000	-0.037267
1972.000000	-0.037387
1970.000000	-0.037406
1968.000000	-0.037380
1966.000000	-0.037341
1964.000000	-0.037287
1962.000000	-0.037227
1960.000000	-0.037209
1958.000000	-0.037260
1956.000000	-0.037350
1954.000000	-0.037440
1952.000000	-0.037547
1950.000000	-0.037703
1948.000000	-0.037893
1946.000000	-0.038079
1944.000000	-0.038259
1942.000000	-0.038440
1940.000000	-0.038593
1938.000000	-0.038682
1936.000000	-0.038700
1934.000000	-0.038698
1932.000000	-0.038719
1930.000000	-0.038762
1928.000000	-0.038838
1926.000000	-0.038953
1924.000000	-0.039086
1922.000000	-0.039202
1920.000000	-0.039246
1918.000000	-0.039203
1916.000000	-0.039087
1914.000000	-0.038915
1912.000000	-0.038724
1910.000000	-0.038572
1908.000000	-0.038509
1906.000000	-0.038551
1904.000000	-0.038668
1902.000000	-0.038847
1900.000000	-0.039065
1898.000000	-0.039273
1896.000000	-0.039430
1894.000000	-0.039517
1892.000000	-0.039551
1890.000000	-0.039561
1888.000000	-0.039552
1886.000000	-0.039541
1884.000000	-0.039553
1882.000000	-0.039594
1880.000000	-0.039669
1878.000000	-0.039763
1876.000000	-0.039864
1874.000000	-0.039960
1872.000000	-0.040035
1870.000000	-0.040102
1868.000000	-0.040165
1866.000000	-0.040205
1864.000000	-0.040209
1862.000000	-0.040168
1860.000000	-0.040099
1858.000000	-0.040030
1856.000000	-0.039967
1854.000000	-0.039906
1852.000000	-0.039857
1850.000000	-0.039863
1848.000000	-0.039941
1846.000000	-0.040024
1844.000000	-0.040056
1842.000000	-0.040049
1840.000000	-0.040035
1838.000000	-0.040018
1836.000000	-0.039966
1834.000000	-0.039868
1832.000000	-0.039774
1830.000000	-0.039723
1828.000000	-0.039687
1826.000000	-0.039606
1824.000000	-0.039457
1822.000000	-0.039252
1820.000000	-0.039017
1818.000000	-0.038753
1816.000000	-0.038463
1814.000000	-0.038169
1812.000000	-0.037898
1810.000000	-0.037686
1808.000000	-0.037541
1806.000000	-0.037447
1804.000000	-0.037389
1802.000000	-0.037357
1800.000000	-0.037363
1798.000000	-0.037416
1796.000000	-0.037475
1794.000000	-0.037501
1792.000000	-0.037497
1790.000000	-0.037489
1788.000000	-0.037482
1786.000000	-0.037451
1784.000000	-0.037390
1782.000000	-0.037333
1780.000000	-0.037293
1778.000000	-0.037242
1776.000000	-0.037189
1774.000000	-0.037158
1772.000000	-0.037132
1770.000000	-0.037084
1768.000000	-0.037032
1766.000000	-0.036981
1764.000000	-0.036931
1762.000000	-0.036869
1760.000000	-0.036752
1758.000000	-0.036578
1756.000000	-0.036387
1754.000000	-0.036204
1752.000000	-0.036079
1750.000000	-0.036030
1748.000000	-0.036019
1746.000000	-0.036070
1744.000000	-0.036189
1742.000000	-0.036311
1740.000000	-0.036374
1738.000000	-0.036326
1736.000000	-0.036147
1734.000000	-0.035871
1732.000000	-0.035539
1730.000000	-0.035189
1728.000000	-0.034866
1726.000000	-0.034609
1724.000000	-0.034446
1722.000000	-0.034360
1720.000000	-0.034312
1718.000000	-0.034287
1716.000000	-0.034254
1714.000000	-0.034161
1712.000000	-0.034010
1710.000000	-0.033804
1708.000000	-0.033544
1706.000000	-0.033244
1704.000000	-0.032904
1702.000000	-0.032556
1700.000000	-0.032244
1698.000000	-0.031953
1696.000000	-0.031722
1694.000000	-0.031626
1692.000000	-0.031664
1690.000000	-0.031786
1688.000000	-0.031923
1686.000000	-0.032064
1684.000000	-0.032247
1682.000000	-0.032404
1680.000000	-0.032451
1678.000000	-0.032396
1676.000000	-0.032289
1674.000000	-0.032179
1672.000000	-0.032045
1670.000000	-0.031815
1668.000000	-0.031464
1666.000000	-0.031058
1664.000000	-0.030666
1662.000000	-0.030239
1660.000000	-0.029717
1658.000000	-0.029167
1656.000000	-0.028696
1654.000000	-0.028352
1652.000000	-0.028051
1650.000000	-0.027673
1648.000000	-0.027338
1646.000000	-0.027133
1644.000000	-0.026989
1642.000000	-0.026835
1640.000000	-0.026658
1638.000000	-0.026489
1636.000000	-0.026353
1634.000000	-0.026153
1632.000000	-0.025835
1630.000000	-0.025410
1628.000000	-0.024897
1626.000000	-0.024336
1624.000000	-0.023753
1622.000000	-0.023157
1620.000000	-0.022593
1618.000000	-0.022134
1616.000000	-0.021840
1614.000000	-0.021683
1612.000000	-0.021627
1610.000000	-0.021708
1608.000000	-0.021943
1606.000000	-0.022275
1604.000000	-0.022630
1602.000000	-0.022958
1600.000000	-0.023253
1598.000000	-0.023506
1596.000000	-0.023670
1594.000000	-0.023713
1592.000000	-0.023639
1590.000000	-0.023466
1588.000000	-0.023228
1586.000000	-0.022927
1584.000000	-0.022560
1582.000000	-0.022156
1580.000000	-0.021737
1578.000000	-0.021305
1576.000000	-0.020836
1574.000000	-0.020299
1572.000000	-0.019760
1570.000000	-0.019278
1568.000000	-0.018818
1566.000000	-0.018363
1564.000000	-0.017922
1562.000000	-0.017498
1560.000000	-0.017063
1558.000000	-0.016499
1556.000000	-0.015681
1554.000000	-0.014703
1552.000000	-0.013611
1550.000000	-0.012339
1548.000000	-0.010860
1546.000000	-0.009234
1544.000000	-0.007540
1542.000000	-0.005811
1540.000000	-0.003903
1538.000000	-0.001809
1536.000000	0.000260
1534.000000	0.002276
1532.000000	0.004238
1530.000000	0.006126
1528.000000	0.007934
1526.000000	0.009644
1524.000000	0.011287
1522.000000	0.012895
1520.000000	0.014424
1518.000000	0.015874
1516.000000	0.017283
1514.000000	0.018678
1512.000000	0.020024
1510.000000	0.021273
1508.000000	0.022463
1506.000000	0.023720
1504.000000	0.024963
1502.000000	0.026036
1500.000000	0.026891
1498.000000	0.027558
1496.000000	0.028107
1494.000000	0.028591
1492.000000	0.029066
1490.000000	0.029631
1488.000000	0.030348
1486.000000	0.031206
1484.000000	0.032135
1482.000000	0.033054
1480.000000	0.033896
1478.000000	0.034558
1476.000000	0.034999
1474.000000	0.035298
1472.000000	0.035559
1470.000000	0.035842
1468.000000	0.036158
1466.000000	0.036540
1464.000000	0.037015
1462.000000	0.037524
1460.000000	0.037953
1458.000000	0.038197
1456.000000	0.038230
1454.000000	0.038020
1452.000000	0.037435
1450.000000	0.036415
1448.000000	0.035005
1446.000000	0.033291
1444.000000	0.031334
1442.000000	0.029169
1440.000000	0.026859
1438.000000	0.024493
1436.000000	0.022094
1434.000000	0.019639
1432.000000	0.017078
1430.000000	0.014396
1428.000000	0.011627
1426.000000	0.008792
1424.000000	0.005918
1422.000000	0.003119
1420.000000	0.000492
1418.000000	-0.001915
1416.000000	-0.004092
1414.000000	-0.006038
1412.000000	-0.007724
1410.000000	-0.009141
1408.000000	-0.010339
1406.000000	-0.011355
1404.000000	-0.012192
1402.000000	-0.012850
1400.000000	-0.013333
1398.000000	-0.013646
1396.000000	-0.013815
1394.000000	-0.013870
1392.000000	-0.013832
1390.000000	-0.013742
1388.000000	-0.013628
1386.000000	-0.013493
1384.000000	-0.013356
1382.000000	-0.013215
1380.000000	-0.013048
1378.000000	-0.012846
1376.000000	-0.012608
1374.000000	-0.012340
1372.000000	-0.012037
1370.000000	-0.011713
1368.000000	-0.011406
1366.000000	-0.011118
1364.000000	-0.010833
1362.000000	-0.010555
1360.000000	-0.010283
1358.000000	-0.010010
1356.000000	-0.009723
1354.000000	-0.009423
1352.000000	-0.009132
1350.000000	-0.008852
1348.000000	-0.008573
1346.000000	-0.008301
1344.000000	-0.008048
1342.000000	-0.007811
1340.000000	-0.007558
1338.000000	-0.007260
1336.000000	-0.006922
1334.000000	-0.006564
1332.000000	-0.006196
1330.000000	-0.005827
1328.000000	-0.005462
1326.000000	-0.005127
1324.000000	-0.004855
1322.000000	-0.004632
1320.000000	-0.004413
1318.000000	-0.004181
1316.000000	-0.003949
1314.000000	-0.003739
1312.000000	-0.003537
1310.000000	-0.003316
1308.000000	-0.003080
1306.000000	-0.002852
1304.000000	-0.002637
1302.000000	-0.002399
1300.000000	-0.002104
1298.000000	-0.001768
1296.000000	-0.001440
1294.000000	-0.001153
1292.000000	-0.000907
1290.000000	-0.000685
1288.000000	-0.000502
1286.000000	-0.000390
1284.000000	-0.000309
1282.000000	-0.000169
1280.000000	0.000066
1278.000000	0.000371
1276.000000	0.000720
1274.000000	0.001119
1272.000000	0.001582
1270.000000	0.002063
1268.000000	0.002490
1266.000000	0.002855
1264.000000	0.003204
1262.000000	0.003575
1260.000000	0.003971
1258.000000	0.004379
1256.000000	0.004806
1254.000000	0.005301
1252.000000	0.005894
1250.000000	0.006555
1248.000000	0.007267
1246.000000	0.008045
1244.000000	0.008909
1242.000000	0.009852
1240.000000	0.010856
1238.000000	0.011927
1236.000000	0.013094
1234.000000	0.014349
1232.000000	0.015681
1230.000000	0.017120
1228.000000	0.018712
1226.000000	0.020472
1224.000000	0.022410
1222.000000	0.024536
1220.000000	0.026865
1218.000000	0.029429
1216.000000	0.032217
1214.000000	0.035157
1212.000000	0.038162
1210.000000	0.041150
1208.000000	0.044055
1206.000000	0.046810
1204.000000	0.049327
1202.000000	0.051533
1200.000000	0.053401
1198.000000	0.054938
1196.000000	0.056146
1194.000000	0.057058
1192.000000	0.057779
1190.000000	0.058398
1188.000000	0.058958
1186.000000	0.059534
1184.000000	0.060215
1182.000000	0.061033
1180.000000	0.061934
1178.000000	0.062818
1176.000000	0.063652
1174.000000	0.064454
1172.000000	0.065186
1170.000000	0.065781
1168.000000	0.066211
1166.000000	0.066519
1164.000000	0.066770
1162.000000	0.066957
1160.000000	0.067049
1158.000000	0.067067
1156.000000	0.067041
1154.000000	0.067014
1152.000000	0.066972
1150.000000	0.066848
1148.000000	0.066646
1146.000000	0.066407
1144.000000	0.066138
1142.000000	0.065837
1140.000000	0.065493
1138.000000	0.065119
1136.000000	0.064760
1134.000000	0.064444
1132.000000	0.064167
1130.000000	0.063948
1128.000000	0.063852
1126.000000	0.063959
1124.000000	0.064327
1122.000000	0.064938
1120.000000	0.065722
1118.000000	0.066621
1116.000000	0.067550
1114.000000	0.068380
1112.000000	0.069007
1110.000000	0.069367
1108.000000	0.069395
1106.000000	0.068990
1104.000000	0.068015
1102.000000	0.066374
1100.000000	0.064017
1098.000000	0.060883
1096.000000	0.056980
1094.000000	0.052497
1092.000000	0.047778
1090.000000	0.043176
1088.000000	0.038959
1086.000000	0.035301
1084.000000	0.032300
1082.000000	0.029981
1080.000000	0.028236
1078.000000	0.026861
1076.000000	0.025700
1074.000000	0.024661
1072.000000	0.023661
1070.000000	0.022659
1068.000000	0.021647
1066.000000	0.020638
1064.000000	0.019661
1062.000000	0.018730
1060.000000	0.017828
1058.000000	0.016942
1056.000000	0.016084
1054.000000	0.015259
1052.000000	0.014464
1050.000000	0.013694
1048.000000	0.012922
1046.000000	0.012138
1044.000000	0.011341
1042.000000	0.010521
1040.000000	0.009685
1038.000000	0.008836
1036.000000	0.007985
1034.000000	0.007167
1032.000000	0.006423
1030.000000	0.005764
1028.000000	0.005141
1026.000000	0.004513
1024.000000	0.003875
1022.000000	0.003210
1020.000000	0.002469
1018.000000	0.001615
1016.000000	0.000667
1014.000000	-0.000346
1012.000000	-0.001407
1010.000000	-0.002502
1008.000000	-0.003639
1006.000000	-0.004801
1004.000000	-0.005935
1002.000000	-0.007028
1000.000000	-0.008073
998.000000	-0.009085
996.000000	-0.010103
994.000000	-0.011118
992.000000	-0.012117
990.000000	-0.013126
988.000000	-0.014159
986.000000	-0.015211
984.000000	-0.016264
982.000000	-0.017295
980.000000	-0.018311
978.000000	-0.019327
976.000000	-0.020340
974.000000	-0.021356
972.000000	-0.022385
970.000000	-0.023415
968.000000	-0.024447
966.000000	-0.025484
964.000000	-0.026525
962.000000	-0.027594
960.000000	-0.028706
958.000000	-0.029864
956.000000	-0.031058
954.000000	-0.032268
952.000000	-0.033479
950.000000	-0.034663
948.000000	-0.035805
946.000000	-0.036909
944.000000	-0.037994
942.000000	-0.039104
940.000000	-0.040232
938.000000	-0.041338
936.000000	-0.042435
934.000000	-0.043530
932.000000	-0.044587
930.000000	-0.045562
928.000000	-0.046416
926.000000	-0.047186
924.000000	-0.047904
922.000000	-0.048535
920.000000	-0.049115
918.000000	-0.049712
916.000000	-0.050325
914.000000	-0.050962
912.000000	-0.051655
910.000000	-0.052435
908.000000	-0.053304
906.000000	-0.054195
904.000000	-0.055079
902.000000	-0.055974
900.000000	-0.056829
898.000000	-0.057581
896.000000	-0.058192
894.000000	-0.058611
892.000000	-0.058752
890.000000	-0.058519
888.000000	-0.057863
886.000000	-0.056769
884.000000	-0.055242
882.000000	-0.053367
880.000000	-0.051321
878.000000	-0.049338
876.000000	-0.047582
874.000000	-0.046137
872.000000	-0.045120
870.000000	-0.044602
868.000000	-0.044509
866.000000	-0.044687
864.000000	-0.045016
862.000000	-0.045474
860.000000	-0.046072
858.000000	-0.046732
856.000000	-0.047374
854.000000	-0.047986
852.000000	-0.048507
850.000000	-0.048822
848.000000	-0.048888
846.000000	-0.048757
844.000000	-0.048509
842.000000	-0.048174
840.000000	-0.047771
838.000000	-0.047406
836.000000	-0.047195
834.000000	-0.047156
832.000000	-0.047238
830.000000	-0.047400
828.000000	-0.047677
826.000000	-0.048129
824.000000	-0.048747
822.000000	-0.049399
820.000000	-0.049979
818.000000	-0.050544
816.000000	-0.051160
814.000000	-0.051755
812.000000	-0.052216
810.000000	-0.052566
808.000000	-0.052937
806.000000	-0.053332
804.000000	-0.053597
802.000000	-0.053645
800.000000	-0.053525
798.000000	-0.053317
796.000000	-0.053063
794.000000	-0.052783
792.000000	-0.052526
790.000000	-0.052343
788.000000	-0.052257
786.000000	-0.052306
784.000000	-0.052474
782.000000	-0.052665
780.000000	-0.052843
778.000000	-0.053066
776.000000	-0.053333
774.000000	-0.053574
772.000000	-0.053765
770.000000	-0.053954
768.000000	-0.054149
766.000000	-0.054211
764.000000	-0.054066
762.000000	-0.053817
760.000000	-0.053445
758.000000	-0.052772
756.000000	-0.051728
754.000000	-0.050401
752.000000	-0.049075
750.000000	-0.047962
748.000000	-0.046986
746.000000	-0.046217
744.000000	-0.045959
742.000000	-0.046316
740.000000	-0.047081
738.000000	-0.047818
736.000000	-0.048185
734.000000	-0.048147
732.000000	-0.047749
730.000000	-0.046934
728.000000	-0.045719
726.000000	-0.044518
724.000000	-0.043728
722.000000	-0.043215
720.000000	-0.042510
718.000000	-0.041132
716.000000	-0.038726
714.000000	-0.035450
712.000000	-0.031083
710.000000	-0.025665
708.000000	-0.020420
706.000000	-0.016307
704.000000	-0.013596
702.000000	-0.012297
700.000000	-0.011203
