PE IR       SUBTECH     SPECTRUM    ASCII       PEDS        4.00        
   -1
mix5050_3_unfl.asc
14/09/23
15:05:57.00
14/10/15
12:56:50.00
nystrom.12
Co-added spectrum 1 at -853, -2212 (Image Marker 1)
700.000000
#HDR
-1
-1
#GR
cm-1
A
1.0
0.0
4000.000000
-2.000000
1651
8
0.048492
-0.028748
#DATA
4000.000000	0.020061
3998.000000	0.019934
3996.000000	0.019830
3994.000000	0.019767
3992.000000	0.019763
3990.000000	0.019817
3988.000000	0.019920
3986.000000	0.020056
3984.000000	0.020197
3982.000000	0.020340
3980.000000	0.020507
3978.000000	0.020683
3976.000000	0.020826
3974.000000	0.020910
3972.000000	0.020937
3970.000000	0.020926
3968.000000	0.020890
3966.000000	0.020851
3964.000000	0.020842
3962.000000	0.020873
3960.000000	0.020900
3958.000000	0.020887
3956.000000	0.020860
3954.000000	0.020841
3952.000000	0.020837
3950.000000	0.020876
3948.000000	0.020968
3946.000000	0.021096
3944.000000	0.021213
3942.000000	0.021270
3940.000000	0.021271
3938.000000	0.021271
3936.000000	0.021289
3934.000000	0.021329
3932.000000	0.021379
3930.000000	0.021400
3928.000000	0.021361
3926.000000	0.021251
3924.000000	0.021105
3922.000000	0.020992
3920.000000	0.020962
3918.000000	0.021003
3916.000000	0.021075
3914.000000	0.021143
3912.000000	0.021183
3910.000000	0.021171
3908.000000	0.021124
3906.000000	0.021078
3904.000000	0.021037
3902.000000	0.020970
3900.000000	0.020856
3898.000000	0.020720
3896.000000	0.020588
3894.000000	0.020454
3892.000000	0.020326
3890.000000	0.020243
3888.000000	0.020214
3886.000000	0.020233
3884.000000	0.020279
3882.000000	0.020326
3880.000000	0.020380
3878.000000	0.020439
3876.000000	0.020489
3874.000000	0.020555
3872.000000	0.020693
3870.000000	0.020943
3868.000000	0.021269
3866.000000	0.021608
3864.000000	0.021976
3862.000000	0.022421
3860.000000	0.022866
3858.000000	0.023218
3856.000000	0.023478
3854.000000	0.023681
3852.000000	0.023785
3850.000000	0.023701
3848.000000	0.023475
3846.000000	0.023166
3844.000000	0.022770
3842.000000	0.022272
3840.000000	0.021770
3838.000000	0.021401
3836.000000	0.021193
3834.000000	0.021079
3832.000000	0.021022
3830.000000	0.021032
3828.000000	0.021085
3826.000000	0.021179
3824.000000	0.021341
3822.000000	0.021576
3820.000000	0.021846
3818.000000	0.022057
3816.000000	0.022153
3814.000000	0.022162
3812.000000	0.022152
3810.000000	0.022158
3808.000000	0.022190
3806.000000	0.022242
3804.000000	0.022282
3802.000000	0.022301
3800.000000	0.022287
3798.000000	0.022259
3796.000000	0.022281
3794.000000	0.022352
3792.000000	0.022418
3790.000000	0.022476
3788.000000	0.022544
3786.000000	0.022630
3784.000000	0.022738
3782.000000	0.022846
3780.000000	0.022945
3778.000000	0.023021
3776.000000	0.023037
3774.000000	0.022997
3772.000000	0.022926
3770.000000	0.022807
3768.000000	0.022619
3766.000000	0.022368
3764.000000	0.022042
3762.000000	0.021657
3760.000000	0.021264
3758.000000	0.020905
3756.000000	0.020618
3754.000000	0.020419
3752.000000	0.020332
3750.000000	0.020374
3748.000000	0.020515
3746.000000	0.020705
3744.000000	0.020962
3742.000000	0.021294
3740.000000	0.021656
3738.000000	0.022024
3736.000000	0.022378
3734.000000	0.022671
3732.000000	0.022826
3730.000000	0.022817
3728.000000	0.022696
3726.000000	0.022541
3724.000000	0.022373
3722.000000	0.022182
3720.000000	0.021977
3718.000000	0.021757
3716.000000	0.021512
3714.000000	0.021278
3712.000000	0.021132
3710.000000	0.021110
3708.000000	0.021175
3706.000000	0.021284
3704.000000	0.021415
3702.000000	0.021557
3700.000000	0.021689
3698.000000	0.021808
3696.000000	0.021941
3694.000000	0.022092
3692.000000	0.022254
3690.000000	0.022435
3688.000000	0.022666
3686.000000	0.022897
3684.000000	0.023075
3682.000000	0.023214
3680.000000	0.023347
3678.000000	0.023477
3676.000000	0.023572
3674.000000	0.023596
3672.000000	0.023493
3670.000000	0.023233
3668.000000	0.022820
3666.000000	0.022365
3664.000000	0.021956
3662.000000	0.021604
3660.000000	0.021293
3658.000000	0.021019
3656.000000	0.020783
3654.000000	0.020604
3652.000000	0.020539
3650.000000	0.020621
3648.000000	0.020826
3646.000000	0.021065
3644.000000	0.021274
3642.000000	0.021449
3640.000000	0.021574
3638.000000	0.021626
3636.000000	0.021665
3634.000000	0.021749
3632.000000	0.021855
3630.000000	0.021933
3628.000000	0.021984
3626.000000	0.022041
3624.000000	0.022114
3622.000000	0.022190
3620.000000	0.022293
3618.000000	0.022470
3616.000000	0.022663
3614.000000	0.022779
3612.000000	0.022814
3610.000000	0.022814
3608.000000	0.022801
3606.000000	0.022751
3604.000000	0.022650
3602.000000	0.022526
3600.000000	0.022390
3598.000000	0.022214
3596.000000	0.022008
3594.000000	0.021823
3592.000000	0.021675
3590.000000	0.021518
3588.000000	0.021328
3586.000000	0.021147
3584.000000	0.021019
3582.000000	0.020921
3580.000000	0.020830
3578.000000	0.020762
3576.000000	0.020742
3574.000000	0.020757
3572.000000	0.020784
3570.000000	0.020836
3568.000000	0.020928
3566.000000	0.021046
3564.000000	0.021171
3562.000000	0.021312
3560.000000	0.021469
3558.000000	0.021634
3556.000000	0.021796
3554.000000	0.021942
3552.000000	0.022084
3550.000000	0.022234
3548.000000	0.022386
3546.000000	0.022515
3544.000000	0.022590
3542.000000	0.022613
3540.000000	0.022620
3538.000000	0.022612
3536.000000	0.022575
3534.000000	0.022517
3532.000000	0.022425
3530.000000	0.022283
3528.000000	0.022110
3526.000000	0.021965
3524.000000	0.021894
3522.000000	0.021880
3520.000000	0.021881
3518.000000	0.021895
3516.000000	0.021923
3514.000000	0.021952
3512.000000	0.021997
3510.000000	0.022075
3508.000000	0.022165
3506.000000	0.022198
3504.000000	0.022140
3502.000000	0.022042
3500.000000	0.021936
3498.000000	0.021806
3496.000000	0.021664
3494.000000	0.021533
3492.000000	0.021403
3490.000000	0.021259
3488.000000	0.021104
3486.000000	0.020959
3484.000000	0.020826
3482.000000	0.020670
3480.000000	0.020474
3478.000000	0.020271
3476.000000	0.020102
3474.000000	0.019963
3472.000000	0.019833
3470.000000	0.019722
3468.000000	0.019650
3466.000000	0.019650
3464.000000	0.019746
3462.000000	0.019937
3460.000000	0.020209
3458.000000	0.020514
3456.000000	0.020759
3454.000000	0.020915
3452.000000	0.021026
3450.000000	0.021110
3448.000000	0.021156
3446.000000	0.021140
3444.000000	0.021028
3442.000000	0.020816
3440.000000	0.020517
3438.000000	0.020161
3436.000000	0.019832
3434.000000	0.019594
3432.000000	0.019428
3430.000000	0.019302
3428.000000	0.019208
3426.000000	0.019154
3424.000000	0.019163
3422.000000	0.019245
3420.000000	0.019384
3418.000000	0.019560
3416.000000	0.019741
3414.000000	0.019893
3412.000000	0.019992
3410.000000	0.020031
3408.000000	0.020014
3406.000000	0.019934
3404.000000	0.019776
3402.000000	0.019555
3400.000000	0.019308
3398.000000	0.019051
3396.000000	0.018762
3394.000000	0.018427
3392.000000	0.018102
3390.000000	0.017845
3388.000000	0.017653
3386.000000	0.017510
3384.000000	0.017412
3382.000000	0.017342
3380.000000	0.017271
3378.000000	0.017205
3376.000000	0.017172
3374.000000	0.017171
3372.000000	0.017160
3370.000000	0.017100
3368.000000	0.017011
3366.000000	0.016930
3364.000000	0.016852
3362.000000	0.016761
3360.000000	0.016664
3358.000000	0.016558
3356.000000	0.016448
3354.000000	0.016354
3352.000000	0.016283
3350.000000	0.016237
3348.000000	0.016206
3346.000000	0.016171
3344.000000	0.016142
3342.000000	0.016143
3340.000000	0.016177
3338.000000	0.016241
3336.000000	0.016328
3334.000000	0.016421
3332.000000	0.016510
3330.000000	0.016593
3328.000000	0.016680
3326.000000	0.016772
3324.000000	0.016868
3322.000000	0.016980
3320.000000	0.017111
3318.000000	0.017241
3316.000000	0.017345
3314.000000	0.017426
3312.000000	0.017511
3310.000000	0.017610
3308.000000	0.017694
3306.000000	0.017754
3304.000000	0.017799
3302.000000	0.017818
3300.000000	0.017803
3298.000000	0.017778
3296.000000	0.017765
3294.000000	0.017772
3292.000000	0.017789
3290.000000	0.017799
3288.000000	0.017823
3286.000000	0.017855
3284.000000	0.017852
3282.000000	0.017798
3280.000000	0.017689
3278.000000	0.017527
3276.000000	0.017328
3274.000000	0.017097
3272.000000	0.016841
3270.000000	0.016572
3268.000000	0.016284
3266.000000	0.015992
3264.000000	0.015743
3262.000000	0.015564
3260.000000	0.015460
3258.000000	0.015420
3256.000000	0.015421
3254.000000	0.015447
3252.000000	0.015483
3250.000000	0.015514
3248.000000	0.015537
3246.000000	0.015541
3244.000000	0.015516
3242.000000	0.015451
3240.000000	0.015341
3238.000000	0.015204
3236.000000	0.015058
3234.000000	0.014910
3232.000000	0.014772
3230.000000	0.014654
3228.000000	0.014583
3226.000000	0.014571
3224.000000	0.014605
3222.000000	0.014664
3220.000000	0.014737
3218.000000	0.014813
3216.000000	0.014885
3214.000000	0.014937
3212.000000	0.014943
3210.000000	0.014902
3208.000000	0.014809
3206.000000	0.014657
3204.000000	0.014465
3202.000000	0.014273
3200.000000	0.014111
3198.000000	0.013973
3196.000000	0.013845
3194.000000	0.013757
3192.000000	0.013739
3190.000000	0.013775
3188.000000	0.013842
3186.000000	0.013935
3184.000000	0.014057
3182.000000	0.014185
3180.000000	0.014283
3178.000000	0.014347
3176.000000	0.014397
3174.000000	0.014425
3172.000000	0.014404
3170.000000	0.014325
3168.000000	0.014196
3166.000000	0.014026
3164.000000	0.013817
3162.000000	0.013566
3160.000000	0.013284
3158.000000	0.012984
3156.000000	0.012662
3154.000000	0.012311
3152.000000	0.011964
3150.000000	0.011670
3148.000000	0.011448
3146.000000	0.011293
3144.000000	0.011185
3142.000000	0.011106
3140.000000	0.011061
3138.000000	0.011045
3136.000000	0.011055
3134.000000	0.011102
3132.000000	0.011175
3130.000000	0.011234
3128.000000	0.011241
3126.000000	0.011194
3124.000000	0.011128
3122.000000	0.011063
3120.000000	0.011000
3118.000000	0.010948
3116.000000	0.010904
3114.000000	0.010847
3112.000000	0.010763
3110.000000	0.010666
3108.000000	0.010597
3106.000000	0.010555
3104.000000	0.010501
3102.000000	0.010425
3100.000000	0.010332
3098.000000	0.010216
3096.000000	0.010095
3094.000000	0.009999
3092.000000	0.009940
3090.000000	0.009902
3088.000000	0.009854
3086.000000	0.009779
3084.000000	0.009697
3082.000000	0.009647
3080.000000	0.009647
3078.000000	0.009680
3076.000000	0.009702
3074.000000	0.009677
3072.000000	0.009610
3070.000000	0.009526
3068.000000	0.009445
3066.000000	0.009388
3064.000000	0.009343
3062.000000	0.009273
3060.000000	0.009155
3058.000000	0.009001
3056.000000	0.008846
3054.000000	0.008723
3052.000000	0.008626
3050.000000	0.008527
3048.000000	0.008408
3046.000000	0.008263
3044.000000	0.008109
3042.000000	0.007967
3040.000000	0.007836
3038.000000	0.007716
3036.000000	0.007604
3034.000000	0.007475
3032.000000	0.007313
3030.000000	0.007143
3028.000000	0.006987
3026.000000	0.006854
3024.000000	0.006739
3022.000000	0.006641
3020.000000	0.006552
3018.000000	0.006463
3016.000000	0.006373
3014.000000	0.006306
3012.000000	0.006263
3010.000000	0.006221
3008.000000	0.006171
3006.000000	0.006124
3004.000000	0.006076
3002.000000	0.006007
3000.000000	0.005917
2998.000000	0.005827
2996.000000	0.005741
2994.000000	0.005648
2992.000000	0.005559
2990.000000	0.005486
2988.000000	0.005433
2986.000000	0.005392
2984.000000	0.005350
2982.000000	0.005290
2980.000000	0.005198
2978.000000	0.005087
2976.000000	0.004972
2974.000000	0.004863
2972.000000	0.004768
2970.000000	0.004696
2968.000000	0.004629
2966.000000	0.004542
2964.000000	0.004443
2962.000000	0.004396
2960.000000	0.004449
2958.000000	0.004554
2956.000000	0.004654
2954.000000	0.004728
2952.000000	0.004763
2950.000000	0.004753
2948.000000	0.004729
2946.000000	0.004719
2944.000000	0.004730
2942.000000	0.004739
2940.000000	0.004697
2938.000000	0.004602
2936.000000	0.004489
2934.000000	0.004379
2932.000000	0.004277
2930.000000	0.004181
2928.000000	0.004069
2926.000000	0.003923
2924.000000	0.003733
2922.000000	0.003497
2920.000000	0.003248
2918.000000	0.003027
2916.000000	0.002831
2914.000000	0.002651
2912.000000	0.002487
2910.000000	0.002338
2908.000000	0.002209
2906.000000	0.002127
2904.000000	0.002099
2902.000000	0.002118
2900.000000	0.002174
2898.000000	0.002264
2896.000000	0.002386
2894.000000	0.002528
2892.000000	0.002668
2890.000000	0.002818
2888.000000	0.002999
2886.000000	0.003188
2884.000000	0.003361
2882.000000	0.003519
2880.000000	0.003650
2878.000000	0.003741
2876.000000	0.003796
2874.000000	0.003831
2872.000000	0.003870
2870.000000	0.003907
2868.000000	0.003894
2866.000000	0.003818
2864.000000	0.003705
2862.000000	0.003568
2860.000000	0.003408
2858.000000	0.003216
2856.000000	0.003000
2854.000000	0.002784
2852.000000	0.002572
2850.000000	0.002359
2848.000000	0.002172
2846.000000	0.002033
2844.000000	0.001922
2842.000000	0.001821
2840.000000	0.001730
2838.000000	0.001662
2836.000000	0.001615
2834.000000	0.001559
2832.000000	0.001486
2830.000000	0.001416
2828.000000	0.001351
2826.000000	0.001275
2824.000000	0.001196
2822.000000	0.001128
2820.000000	0.001069
2818.000000	0.001012
2816.000000	0.000953
2814.000000	0.000903
2812.000000	0.000856
2810.000000	0.000784
2808.000000	0.000674
2806.000000	0.000545
2804.000000	0.000411
2802.000000	0.000273
2800.000000	0.000139
2798.000000	0.000034
2796.000000	-0.000027
2794.000000	-0.000049
2792.000000	-0.000048
2790.000000	-0.000032
2788.000000	0.000000
2786.000000	0.000049
2784.000000	0.000104
2782.000000	0.000168
2780.000000	0.000234
2778.000000	0.000268
2776.000000	0.000246
2774.000000	0.000167
2772.000000	0.000056
2770.000000	-0.000051
2768.000000	-0.000127
2766.000000	-0.000173
2764.000000	-0.000194
2762.000000	-0.000203
2760.000000	-0.000202
2758.000000	-0.000183
2756.000000	-0.000138
2754.000000	-0.000068
2752.000000	0.000022
2750.000000	0.000110
2748.000000	0.000171
2746.000000	0.000195
2744.000000	0.000180
2742.000000	0.000132
2740.000000	0.000075
2738.000000	0.000013
2736.000000	-0.000057
2734.000000	-0.000131
2732.000000	-0.000185
2730.000000	-0.000203
2728.000000	-0.000197
2726.000000	-0.000185
2724.000000	-0.000164
2722.000000	-0.000114
2720.000000	-0.000039
2718.000000	0.000041
2716.000000	0.000128
2714.000000	0.000228
2712.000000	0.000311
2710.000000	0.000345
2708.000000	0.000347
2706.000000	0.000342
2704.000000	0.000336
2702.000000	0.000320
2700.000000	0.000287
2698.000000	0.000253
2696.000000	0.000231
2694.000000	0.000194
2692.000000	0.000133
2690.000000	0.000078
2688.000000	0.000048
2686.000000	0.000050
2684.000000	0.000073
2682.000000	0.000094
2680.000000	0.000105
2678.000000	0.000095
2676.000000	0.000056
2674.000000	0.000018
2672.000000	0.000005
2670.000000	0.000011
2668.000000	0.000015
2666.000000	0.000008
2664.000000	-0.000005
2662.000000	-0.000010
2660.000000	0.000002
2658.000000	0.000034
2656.000000	0.000080
2654.000000	0.000122
2652.000000	0.000161
2650.000000	0.000191
2648.000000	0.000197
2646.000000	0.000178
2644.000000	0.000142
2642.000000	0.000090
2640.000000	0.000028
2638.000000	-0.000033
2636.000000	-0.000079
2634.000000	-0.000115
2632.000000	-0.000170
2630.000000	-0.000253
2628.000000	-0.000336
2626.000000	-0.000399
2624.000000	-0.000442
2622.000000	-0.000472
2620.000000	-0.000500
2618.000000	-0.000527
2616.000000	-0.000559
2614.000000	-0.000591
2612.000000	-0.000603
2610.000000	-0.000576
2608.000000	-0.000524
2606.000000	-0.000477
2604.000000	-0.000451
2602.000000	-0.000446
2600.000000	-0.000463
2598.000000	-0.000501
2596.000000	-0.000547
2594.000000	-0.000593
2592.000000	-0.000650
2590.000000	-0.000730
2588.000000	-0.000818
2586.000000	-0.000893
2584.000000	-0.000943
2582.000000	-0.000968
2580.000000	-0.000963
2578.000000	-0.000924
2576.000000	-0.000867
2574.000000	-0.000802
2572.000000	-0.000707
2570.000000	-0.000573
2568.000000	-0.000413
2566.000000	-0.000239
2564.000000	-0.000054
2562.000000	0.000132
2560.000000	0.000307
2558.000000	0.000460
2556.000000	0.000597
2554.000000	0.000732
2552.000000	0.000845
2550.000000	0.000910
2548.000000	0.000926
2546.000000	0.000900
2544.000000	0.000840
2542.000000	0.000757
2540.000000	0.000661
2538.000000	0.000560
2536.000000	0.000449
2534.000000	0.000310
2532.000000	0.000161
2530.000000	0.000044
2528.000000	-0.000030
2526.000000	-0.000085
2524.000000	-0.000133
2522.000000	-0.000157
2520.000000	-0.000150
2518.000000	-0.000127
2516.000000	-0.000098
2514.000000	-0.000057
2512.000000	-0.000011
2510.000000	0.000022
2508.000000	0.000043
2506.000000	0.000077
2504.000000	0.000138
2502.000000	0.000191
2500.000000	0.000210
2498.000000	0.000212
2496.000000	0.000220
2494.000000	0.000255
2492.000000	0.000304
2490.000000	0.000343
2488.000000	0.000363
2486.000000	0.000363
2484.000000	0.000341
2482.000000	0.000320
2480.000000	0.000321
2478.000000	0.000344
2476.000000	0.000384
2474.000000	0.000427
2472.000000	0.000475
2470.000000	0.000551
2468.000000	0.000650
2466.000000	0.000754
2464.000000	0.000857
2462.000000	0.000958
2460.000000	0.001056
2458.000000	0.001145
2456.000000	0.001209
2454.000000	0.001238
2452.000000	0.001246
2450.000000	0.001248
2448.000000	0.001254
2446.000000	0.001266
2444.000000	0.001285
2442.000000	0.001305
2440.000000	0.001316
2438.000000	0.001320
2436.000000	0.001343
2434.000000	0.001405
2432.000000	0.001491
2430.000000	0.001584
2428.000000	0.001678
2426.000000	0.001784
2424.000000	0.001908
2422.000000	0.002046
2420.000000	0.002197
2418.000000	0.002353
2416.000000	0.002495
2414.000000	0.002618
2412.000000	0.002730
2410.000000	0.002827
2408.000000	0.002909
2406.000000	0.002970
2404.000000	0.002990
2402.000000	0.002969
2400.000000	0.002920
2398.000000	0.002854
2396.000000	0.002775
2394.000000	0.002670
2392.000000	0.002544
2390.000000	0.002419
2388.000000	0.002286
2386.000000	0.002126
2384.000000	0.001963
2382.000000	0.001832
2380.000000	0.001756
2378.000000	0.001739
2376.000000	0.001770
2374.000000	0.001841
2372.000000	0.001955
2370.000000	0.002117
2368.000000	0.002350
2366.000000	0.002679
2364.000000	0.003103
2362.000000	0.003595
2360.000000	0.004099
2358.000000	0.004561
2356.000000	0.004977
2354.000000	0.005413
2352.000000	0.005877
2350.000000	0.006291
2348.000000	0.006611
2346.000000	0.006849
2344.000000	0.007021
2342.000000	0.007128
2340.000000	0.007199
2338.000000	0.007277
2336.000000	0.007376
2334.000000	0.007407
2332.000000	0.007307
2330.000000	0.007140
2328.000000	0.006977
2326.000000	0.006808
2324.000000	0.006596
2322.000000	0.006332
2320.000000	0.006026
2318.000000	0.005698
2316.000000	0.005372
2314.000000	0.005106
2312.000000	0.004949
2310.000000	0.004889
2308.000000	0.004893
2306.000000	0.004957
2304.000000	0.005083
2302.000000	0.005258
2300.000000	0.005470
2298.000000	0.005713
2296.000000	0.005974
2294.000000	0.006226
2292.000000	0.006444
2290.000000	0.006614
2288.000000	0.006740
2286.000000	0.006824
2284.000000	0.006874
2282.000000	0.006905
2280.000000	0.006922
2278.000000	0.006911
2276.000000	0.006870
2274.000000	0.006818
2272.000000	0.006771
2270.000000	0.006735
2268.000000	0.006713
2266.000000	0.006693
2264.000000	0.006667
2262.000000	0.006632
2260.000000	0.006593
2258.000000	0.006565
2256.000000	0.006547
2254.000000	0.006524
2252.000000	0.006511
2250.000000	0.006518
2248.000000	0.006534
2246.000000	0.006567
2244.000000	0.006651
2242.000000	0.006794
2240.000000	0.006977
2238.000000	0.007182
2236.000000	0.007399
2234.000000	0.007613
2232.000000	0.007798
2230.000000	0.007945
2228.000000	0.008080
2226.000000	0.008212
2224.000000	0.008319
2222.000000	0.008386
2220.000000	0.008423
2218.000000	0.008429
2216.000000	0.008412
2214.000000	0.008402
2212.000000	0.008417
2210.000000	0.008445
2208.000000	0.008458
2206.000000	0.008451
2204.000000	0.008444
2202.000000	0.008453
2200.000000	0.008494
2198.000000	0.008577
2196.000000	0.008696
2194.000000	0.008834
2192.000000	0.008977
2190.000000	0.009141
2188.000000	0.009349
2186.000000	0.009583
2184.000000	0.009823
2182.000000	0.010050
2180.000000	0.010233
2178.000000	0.010373
2176.000000	0.010486
2174.000000	0.010578
2172.000000	0.010653
2170.000000	0.010704
2168.000000	0.010720
2166.000000	0.010711
2164.000000	0.010683
2162.000000	0.010649
2160.000000	0.010637
2158.000000	0.010646
2156.000000	0.010659
2154.000000	0.010675
2152.000000	0.010698
2150.000000	0.010738
2148.000000	0.010804
2146.000000	0.010886
2144.000000	0.010982
2142.000000	0.011089
2140.000000	0.011199
2138.000000	0.011313
2136.000000	0.011426
2134.000000	0.011527
2132.000000	0.011619
2130.000000	0.011704
2128.000000	0.011782
2126.000000	0.011864
2124.000000	0.011950
2122.000000	0.012029
2120.000000	0.012082
2118.000000	0.012091
2116.000000	0.012063
2114.000000	0.012021
2112.000000	0.011963
2110.000000	0.011874
2108.000000	0.011751
2106.000000	0.011595
2104.000000	0.011412
2102.000000	0.011215
2100.000000	0.011027
2098.000000	0.010872
2096.000000	0.010759
2094.000000	0.010675
2092.000000	0.010623
2090.000000	0.010614
2088.000000	0.010641
2086.000000	0.010694
2084.000000	0.010770
2082.000000	0.010856
2080.000000	0.010931
2078.000000	0.010986
2076.000000	0.011025
2074.000000	0.011054
2072.000000	0.011069
2070.000000	0.011060
2068.000000	0.011032
2066.000000	0.010981
2064.000000	0.010910
2062.000000	0.010839
2060.000000	0.010785
2058.000000	0.010750
2056.000000	0.010729
2054.000000	0.010731
2052.000000	0.010764
2050.000000	0.010807
2048.000000	0.010846
2046.000000	0.010898
2044.000000	0.010972
2042.000000	0.011055
2040.000000	0.011150
2038.000000	0.011259
2036.000000	0.011360
2034.000000	0.011422
2032.000000	0.011435
2030.000000	0.011434
2028.000000	0.011448
2026.000000	0.011457
2024.000000	0.011440
2022.000000	0.011391
2020.000000	0.011310
2018.000000	0.011208
2016.000000	0.011100
2014.000000	0.011000
2012.000000	0.010910
2010.000000	0.010819
2008.000000	0.010727
2006.000000	0.010646
2004.000000	0.010590
2002.000000	0.010564
2000.000000	0.010557
1998.000000	0.010554
1996.000000	0.010555
1994.000000	0.010567
1992.000000	0.010594
1990.000000	0.010633
1988.000000	0.010664
1986.000000	0.010675
1984.000000	0.010670
1982.000000	0.010652
1980.000000	0.010634
1978.000000	0.010633
1976.000000	0.010636
1974.000000	0.010628
1972.000000	0.010605
1970.000000	0.010576
1968.000000	0.010567
1966.000000	0.010582
1964.000000	0.010608
1962.000000	0.010644
1960.000000	0.010674
1958.000000	0.010675
1956.000000	0.010659
1954.000000	0.010653
1952.000000	0.010664
1950.000000	0.010677
1948.000000	0.010674
1946.000000	0.010656
1944.000000	0.010640
1942.000000	0.010628
1940.000000	0.010618
1938.000000	0.010619
1936.000000	0.010621
1934.000000	0.010597
1932.000000	0.010546
1930.000000	0.010485
1928.000000	0.010423
1926.000000	0.010357
1924.000000	0.010274
1922.000000	0.010171
1920.000000	0.010063
1918.000000	0.009961
1916.000000	0.009879
1914.000000	0.009829
1912.000000	0.009803
1910.000000	0.009788
1908.000000	0.009777
1906.000000	0.009768
1904.000000	0.009761
1902.000000	0.009750
1900.000000	0.009721
1898.000000	0.009656
1896.000000	0.009557
1894.000000	0.009439
1892.000000	0.009306
1890.000000	0.009148
1888.000000	0.008969
1886.000000	0.008772
1884.000000	0.008559
1882.000000	0.008350
1880.000000	0.008174
1878.000000	0.008047
1876.000000	0.007947
1874.000000	0.007850
1872.000000	0.007768
1870.000000	0.007717
1868.000000	0.007686
1866.000000	0.007675
1864.000000	0.007697
1862.000000	0.007733
1860.000000	0.007755
1858.000000	0.007753
1856.000000	0.007743
1854.000000	0.007731
1852.000000	0.007706
1850.000000	0.007672
1848.000000	0.007644
1846.000000	0.007607
1844.000000	0.007540
1842.000000	0.007461
1840.000000	0.007391
1838.000000	0.007325
1836.000000	0.007264
1834.000000	0.007219
1832.000000	0.007192
1830.000000	0.007164
1828.000000	0.007115
1826.000000	0.007064
1824.000000	0.007030
1822.000000	0.006989
1820.000000	0.006913
1818.000000	0.006806
1816.000000	0.006682
1814.000000	0.006538
1812.000000	0.006373
1810.000000	0.006200
1808.000000	0.006045
1806.000000	0.005913
1804.000000	0.005791
1802.000000	0.005688
1800.000000	0.005632
1798.000000	0.005625
1796.000000	0.005641
1794.000000	0.005667
1792.000000	0.005700
1790.000000	0.005734
1788.000000	0.005763
1786.000000	0.005775
1784.000000	0.005779
1782.000000	0.005778
1780.000000	0.005752
1778.000000	0.005699
1776.000000	0.005628
1774.000000	0.005538
1772.000000	0.005435
1770.000000	0.005335
1768.000000	0.005242
1766.000000	0.005153
1764.000000	0.005064
1762.000000	0.004962
1760.000000	0.004849
1758.000000	0.004731
1756.000000	0.004615
1754.000000	0.004514
1752.000000	0.004435
1750.000000	0.004356
1748.000000	0.004260
1746.000000	0.004135
1744.000000	0.003985
1742.000000	0.003829
1740.000000	0.003683
1738.000000	0.003556
1736.000000	0.003449
1734.000000	0.003335
1732.000000	0.003179
1730.000000	0.002995
1728.000000	0.002809
1726.000000	0.002637
1724.000000	0.002483
1722.000000	0.002343
1720.000000	0.002210
1718.000000	0.002062
1716.000000	0.001871
1714.000000	0.001664
1712.000000	0.001496
1710.000000	0.001378
1708.000000	0.001289
1706.000000	0.001214
1704.000000	0.001135
1702.000000	0.001036
1700.000000	0.000926
1698.000000	0.000828
1696.000000	0.000785
1694.000000	0.000799
1692.000000	0.000815
1690.000000	0.000806
1688.000000	0.000776
1686.000000	0.000742
1684.000000	0.000731
1682.000000	0.000758
1680.000000	0.000802
1678.000000	0.000844
1676.000000	0.000854
1674.000000	0.000817
1672.000000	0.000750
1670.000000	0.000682
1668.000000	0.000620
1666.000000	0.000549
1664.000000	0.000457
1662.000000	0.000353
1660.000000	0.000256
1658.000000	0.000167
1656.000000	0.000095
1654.000000	0.000066
1652.000000	0.000089
1650.000000	0.000134
1648.000000	0.000184
1646.000000	0.000252
1644.000000	0.000345
1642.000000	0.000442
1640.000000	0.000546
1638.000000	0.000673
1636.000000	0.000821
1634.000000	0.000958
1632.000000	0.001089
1630.000000	0.001245
1628.000000	0.001440
1626.000000	0.001663
1624.000000	0.001901
1622.000000	0.002142
1620.000000	0.002357
1618.000000	0.002519
1616.000000	0.002625
1614.000000	0.002694
1612.000000	0.002724
1610.000000	0.002696
1608.000000	0.002608
1606.000000	0.002472
1604.000000	0.002301
1602.000000	0.002119
1600.000000	0.001951
1598.000000	0.001812
1596.000000	0.001708
1594.000000	0.001640
1592.000000	0.001608
1590.000000	0.001613
1588.000000	0.001657
1586.000000	0.001730
1584.000000	0.001822
1582.000000	0.001923
1580.000000	0.002020
1578.000000	0.002108
1576.000000	0.002225
1574.000000	0.002362
1572.000000	0.002500
1570.000000	0.002643
1568.000000	0.002795
1566.000000	0.002974
1564.000000	0.003186
1562.000000	0.003425
1560.000000	0.003713
1558.000000	0.004066
1556.000000	0.004410
1554.000000	0.004751
1552.000000	0.005115
1550.000000	0.005501
1548.000000	0.005890
1546.000000	0.006262
1544.000000	0.006627
1542.000000	0.007010
1540.000000	0.007408
1538.000000	0.007806
1536.000000	0.008239
1534.000000	0.008717
1532.000000	0.009236
1530.000000	0.009808
1528.000000	0.010452
1526.000000	0.011181
1524.000000	0.011991
1522.000000	0.012842
1520.000000	0.013712
1518.000000	0.014601
1516.000000	0.015497
1514.000000	0.016369
1512.000000	0.017187
1510.000000	0.017941
1508.000000	0.018630
1506.000000	0.019233
1504.000000	0.019709
1502.000000	0.020069
1500.000000	0.020326
1498.000000	0.020479
1496.000000	0.020536
1494.000000	0.020520
1492.000000	0.020447
1490.000000	0.020297
1488.000000	0.020039
1486.000000	0.019681
1484.000000	0.019271
1482.000000	0.018826
1480.000000	0.018350
1478.000000	0.017842
1476.000000	0.017303
1474.000000	0.016730
1472.000000	0.016138
1470.000000	0.015565
1468.000000	0.015047
1466.000000	0.014588
1464.000000	0.014180
1462.000000	0.013817
1460.000000	0.013500
1458.000000	0.013237
1456.000000	0.013034
1454.000000	0.012886
1452.000000	0.012771
1450.000000	0.012663
1448.000000	0.012545
1446.000000	0.012409
1444.000000	0.012237
1442.000000	0.012017
1440.000000	0.011748
1438.000000	0.011432
1436.000000	0.011070
1434.000000	0.010657
1432.000000	0.010194
1430.000000	0.009678
1428.000000	0.009109
1426.000000	0.008496
1424.000000	0.007864
1422.000000	0.007226
1420.000000	0.006572
1418.000000	0.005882
1416.000000	0.005143
1414.000000	0.004363
1412.000000	0.003572
1410.000000	0.002803
1408.000000	0.002072
1406.000000	0.001389
1404.000000	0.000750
1402.000000	0.000156
1400.000000	-0.000370
1398.000000	-0.000800
1396.000000	-0.001123
1394.000000	-0.001340
1392.000000	-0.001472
1390.000000	-0.001548
1388.000000	-0.001579
1386.000000	-0.001571
1384.000000	-0.001540
1382.000000	-0.001502
1380.000000	-0.001467
1378.000000	-0.001440
1376.000000	-0.001420
1374.000000	-0.001407
1372.000000	-0.001396
1370.000000	-0.001376
1368.000000	-0.001344
1366.000000	-0.001299
1364.000000	-0.001231
1362.000000	-0.001126
1360.000000	-0.000991
1358.000000	-0.000834
1356.000000	-0.000657
1354.000000	-0.000460
1352.000000	-0.000247
1350.000000	-0.000017
1348.000000	0.000219
1346.000000	0.000455
1344.000000	0.000684
1342.000000	0.000911
1340.000000	0.001138
1338.000000	0.001353
1336.000000	0.001534
1334.000000	0.001675
1332.000000	0.001785
1330.000000	0.001866
1328.000000	0.001922
1326.000000	0.001964
1324.000000	0.001997
1322.000000	0.002014
1320.000000	0.002020
1318.000000	0.002034
1316.000000	0.002078
1314.000000	0.002149
1312.000000	0.002234
1310.000000	0.002327
1308.000000	0.002431
1306.000000	0.002547
1304.000000	0.002668
1302.000000	0.002788
1300.000000	0.002906
1298.000000	0.003019
1296.000000	0.003128
1294.000000	0.003246
1292.000000	0.003385
1290.000000	0.003547
1288.000000	0.003725
1286.000000	0.003910
1284.000000	0.004096
1282.000000	0.004291
1280.000000	0.004492
1278.000000	0.004687
1276.000000	0.004865
1274.000000	0.005022
1272.000000	0.005158
1270.000000	0.005279
1268.000000	0.005391
1266.000000	0.005497
1264.000000	0.005596
1262.000000	0.005687
1260.000000	0.005772
1258.000000	0.005865
1256.000000	0.005971
1254.000000	0.006085
1252.000000	0.006194
1250.000000	0.006282
1248.000000	0.006346
1246.000000	0.006402
1244.000000	0.006482
1242.000000	0.006591
1240.000000	0.006714
1238.000000	0.006850
1236.000000	0.007007
1234.000000	0.007205
1232.000000	0.007459
1230.000000	0.007792
1228.000000	0.008217
1226.000000	0.008729
1224.000000	0.009304
1222.000000	0.009935
1220.000000	0.010643
1218.000000	0.011440
1216.000000	0.012318
1214.000000	0.013263
1212.000000	0.014267
1210.000000	0.015308
1208.000000	0.016361
1206.000000	0.017412
1204.000000	0.018456
1202.000000	0.019495
1200.000000	0.020522
1198.000000	0.021519
1196.000000	0.022464
1194.000000	0.023347
1192.000000	0.024173
1190.000000	0.024959
1188.000000	0.025717
1186.000000	0.026433
1184.000000	0.027095
1182.000000	0.027703
1180.000000	0.028260
1178.000000	0.028782
1176.000000	0.029305
1174.000000	0.029852
1172.000000	0.030405
1170.000000	0.030943
1168.000000	0.031457
1166.000000	0.031971
1164.000000	0.032521
1162.000000	0.033106
1160.000000	0.033713
1158.000000	0.034341
1156.000000	0.034966
1154.000000	0.035568
1152.000000	0.036150
1150.000000	0.036729
1148.000000	0.037325
1146.000000	0.037950
1144.000000	0.038601
1142.000000	0.039291
1140.000000	0.040025
1138.000000	0.040781
1136.000000	0.041558
1134.000000	0.042370
1132.000000	0.043232
1130.000000	0.044139
1128.000000	0.045056
1126.000000	0.045939
1124.000000	0.046754
1122.000000	0.047455
1120.000000	0.048004
1118.000000	0.048368
1116.000000	0.048492
1114.000000	0.048303
1112.000000	0.047743
1110.000000	0.046786
1108.000000	0.045449
1106.000000	0.043755
1104.000000	0.041710
1102.000000	0.039340
1100.000000	0.036700
1098.000000	0.033866
1096.000000	0.030951
1094.000000	0.028086
1092.000000	0.025366
1090.000000	0.022834
1088.000000	0.020500
1086.000000	0.018386
1084.000000	0.016522
1082.000000	0.014925
1080.000000	0.013600
1078.000000	0.012529
1076.000000	0.011666
1074.000000	0.010945
1072.000000	0.010308
1070.000000	0.009745
1068.000000	0.009263
1066.000000	0.008843
1064.000000	0.008462
1062.000000	0.008105
1060.000000	0.007753
1058.000000	0.007385
1056.000000	0.006997
1054.000000	0.006605
1052.000000	0.006223
1050.000000	0.005863
1048.000000	0.005529
1046.000000	0.005220
1044.000000	0.004939
1042.000000	0.004679
1040.000000	0.004453
1038.000000	0.004272
1036.000000	0.004130
1034.000000	0.004022
1032.000000	0.003940
1030.000000	0.003867
1028.000000	0.003790
1026.000000	0.003702
1024.000000	0.003594
1022.000000	0.003466
1020.000000	0.003321
1018.000000	0.003166
1016.000000	0.003008
1014.000000	0.002838
1012.000000	0.002653
1010.000000	0.002459
1008.000000	0.002264
1006.000000	0.002082
1004.000000	0.001938
1002.000000	0.001838
1000.000000	0.001768
998.000000	0.001711
996.000000	0.001671
994.000000	0.001680
992.000000	0.001749
990.000000	0.001862
988.000000	0.001997
986.000000	0.002143
984.000000	0.002300
982.000000	0.002459
980.000000	0.002622
978.000000	0.002792
976.000000	0.002958
974.000000	0.003090
972.000000	0.003172
970.000000	0.003217
968.000000	0.003260
966.000000	0.003295
964.000000	0.003303
962.000000	0.003295
960.000000	0.003290
958.000000	0.003290
956.000000	0.003281
954.000000	0.003259
952.000000	0.003249
950.000000	0.003254
948.000000	0.003245
946.000000	0.003226
944.000000	0.003219
942.000000	0.003218
940.000000	0.003203
938.000000	0.003169
936.000000	0.003149
934.000000	0.003177
932.000000	0.003223
930.000000	0.003263
928.000000	0.003330
926.000000	0.003445
924.000000	0.003571
922.000000	0.003679
920.000000	0.003794
918.000000	0.003937
916.000000	0.004076
914.000000	0.004178
912.000000	0.004264
910.000000	0.004369
908.000000	0.004480
906.000000	0.004566
904.000000	0.004649
902.000000	0.004750
900.000000	0.004846
898.000000	0.004941
896.000000	0.005073
894.000000	0.005253
892.000000	0.005452
890.000000	0.005619
888.000000	0.005722
886.000000	0.005744
884.000000	0.005668
882.000000	0.005487
880.000000	0.005195
878.000000	0.004748
876.000000	0.004085
874.000000	0.003192
872.000000	0.002113
870.000000	0.000902
868.000000	-0.000395
866.000000	-0.001749
864.000000	-0.003138
862.000000	-0.004544
860.000000	-0.005937
858.000000	-0.007279
856.000000	-0.008525
854.000000	-0.009646
852.000000	-0.010655
850.000000	-0.011594
848.000000	-0.012488
846.000000	-0.013334
844.000000	-0.014106
842.000000	-0.014795
840.000000	-0.015429
838.000000	-0.016032
836.000000	-0.016620
834.000000	-0.017211
832.000000	-0.017808
830.000000	-0.018388
828.000000	-0.018926
826.000000	-0.019414
824.000000	-0.019876
822.000000	-0.020342
820.000000	-0.020807
818.000000	-0.021254
816.000000	-0.021688
814.000000	-0.022115
812.000000	-0.022544
810.000000	-0.022998
808.000000	-0.023492
806.000000	-0.024025
804.000000	-0.024574
802.000000	-0.025104
800.000000	-0.025586
798.000000	-0.026020
796.000000	-0.026426
794.000000	-0.026814
792.000000	-0.027138
790.000000	-0.027341
788.000000	-0.027444
786.000000	-0.027515
784.000000	-0.027578
782.000000	-0.027649
780.000000	-0.027784
778.000000	-0.027984
776.000000	-0.028174
774.000000	-0.028302
772.000000	-0.028413
770.000000	-0.028566
768.000000	-0.028705
766.000000	-0.028748
764.000000	-0.028696
762.000000	-0.028561
760.000000	-0.028291
758.000000	-0.027905
756.000000	-0.027521
754.000000	-0.027204
752.000000	-0.026932
750.000000	-0.026708
748.000000	-0.026582
746.000000	-0.026534
744.000000	-0.026530
742.000000	-0.026576
740.000000	-0.026775
738.000000	-0.027075
736.000000	-0.027255
734.000000	-0.027267
732.000000	-0.027177
730.000000	-0.026897
728.000000	-0.026384
726.000000	-0.025622
724.000000	-0.024632
722.000000	-0.023420
720.000000	-0.021974
718.000000	-0.020320
716.000000	-0.018694
714.000000	-0.017234
712.000000	-0.015872
710.000000	-0.014710
708.000000	-0.013722
706.000000	-0.013036
704.000000	-0.012631
702.000000	-0.012495
700.000000	-0.012420
